time,ecg
0.0,0.0658079702994804
0.002777777777777778,0.06767501748865776
0.005555555555555556,0.012771711370435757
0.008333333333333333,-0.08919254131541383
0.011111111111111112,-0.046676853558985154
0.013888888888888888,-0.06056376231240411
0.016666666666666666,0.0941589553019852
0.019444444444444445,0.12040046096618352
0.022222222222222223,0.11168909727313873
0.025,0.16567576911535986
0.027777777777777776,0.16245187141969042
0.030555555555555555,0.16630345328038945
0.03333333333333333,-0.021930889506480318
0.03611111111111111,0.06669098071682757
0.03888888888888889,-0.016053384490834932
0.041666666666666664,0.18050871482725936
0.044444444444444446,0.11082589925969605
0.04722222222222222,0.0982039044313821
0.05,0.05701441783242546
0.05277777777777778,0.1075789720085002
0.05555555555555555,0.09785218249760572
0.058333333333333334,0.07729557695508384
0.06111111111111111,0.08027536823284828
0.06388888888888888,0.06313676133511464
0.06666666666666667,0.04273542661604467
0.06944444444444445,0.1731539324884605
0.07222222222222222,0.1277827789974298
0.075,0.014935399135234225
0.07777777777777778,0.11481788837472283
0.08055555555555556,0.1856819570441093
0.08333333333333333,0.13017383542696243
0.08611111111111111,0.17896031270431245
0.08888888888888889,0.15158703272885438
0.09166666666666666,-0.0007307671626489362
0.09444444444444444,-0.06406913363246186
0.09722222222222222,0.00466021843431709
0.1,0.050346742858279246
0.10277777777777777,0.18294718637520146
0.10555555555555556,0.06387378623142395
0.10833333333333334,0.11219215232388036
0.1111111111111111,0.0993809207370433
0.11388888888888889,0.0832626719060011
0.11666666666666667,0.04231884631345353
0.11944444444444445,0.02348849803880628
0.12222222222222222,0.15287724545350143
0.125,0.1508075254730649
0.12777777777777777,0.1467896880448742
0.13055555555555556,0.002443584078138397
0.13333333333333333,0.028312553502013216
0.1361111111111111,0.09991692862472237
0.1388888888888889,0.1035036828309257
0.14166666666666666,0.047180647404977794
0.14444444444444443,0.00228826888086342
0.14722222222222223,0.0396002627155171
0.15,0.04747083319409595
0.1527777777777778,-0.005820632461278369
0.15555555555555556,0.15250060583296002
0.15833333333333333,4.855777985354748e-05
0.16111111111111112,0.18810056938693154
0.1638888888888889,0.057091585260623245
0.16666666666666666,0.09125234250554123
0.16944444444444445,0.22834581678797056
0.17222222222222222,0.17332884086976186
0.175,0.07648611891569332
0.17777777777777778,0.021984242043067898
0.18055555555555555,0.12023421894355832
0.18333333333333332,0.09325661256457121
0.18611111111111112,0.15188675880992503
0.18888888888888888,0.15207858008893513
0.19166666666666668,0.10629764942553598
0.19444444444444445,0.050631980807896194
0.19722222222222222,-0.037803976421166716
0.2,0.1636220040040585
0.20277777777777778,0.10179979639740218
0.20555555555555555,0.1728526838351952
0.20833333333333334,0.0994860641980174
0.2111111111111111,0.12649986922158507
0.21388888888888888,0.12050452319625804
0.21666666666666667,0.08384235607176836
0.21944444444444444,0.10079389374799834
0.2222222222222222,0.1750918345308192
0.225,0.1453987496093152
0.22777777777777777,0.16894701319502098
0.23055555555555557,0.15005970637489072
0.23333333333333334,-0.00022798850179331365
0.2361111111111111,0.2075093465362514
0.2388888888888889,0.06011035815809645
0.24166666666666667,0.03550048674505972
0.24444444444444444,0.14870453620833832
0.24722222222222223,0.18732412702189774
0.25,0.15038022940140988
0.25277777777777777,0.06310595093197545
0.25555555555555554,0.12126110302328293
0.25833333333333336,0.05068546847144384
0.2611111111111111,0.13806776832611198
0.2638888888888889,0.20639462864334182
0.26666666666666666,0.11199437349442543
0.26944444444444443,0.15466272151204968
0.2722222222222222,0.10895346117822105
0.275,0.013028686152325317
0.2777777777777778,0.07623618052632569
0.28055555555555556,0.09135674911629602
0.2833333333333333,0.11143414641993571
0.2861111111111111,0.15952249879504474
0.28888888888888886,0.14492843967510352
0.2916666666666667,0.11441300850795241
0.29444444444444445,0.13202288803116236
0.2972222222222222,-0.018966453425503654
0.3,0.0946028336366287
0.30277777777777776,0.24156007234551774
0.3055555555555556,0.08169139350889297
0.30833333333333335,0.12309731128434263
0.3111111111111111,0.12828246160884377
0.3138888888888889,0.05415136693637135
0.31666666666666665,0.21867901478001894
0.3194444444444444,0.15185486646577315
0.32222222222222224,0.07793370213367437
0.325,0.02666834108519925
0.3277777777777778,0.17767795552904153
0.33055555555555555,0.026487644945648967
0.3333333333333333,0.06865994437791494
0.33611111111111114,0.11745189528988677
0.3388888888888889,0.11630061549799424
0.3416666666666667,0.15679548652803432
0.34444444444444444,0.2648572578424793
0.3472222222222222,0.11412119351579036
0.35,0.12888005202394404
0.3527777777777778,0.19331609962331847
0.35555555555555557,0.1479751758089353
0.35833333333333334,0.23063357567298048
0.3611111111111111,0.11667898148569908
0.3638888888888889,0.12682807431809867
0.36666666666666664,0.19407830424900163
0.36944444444444446,0.20333282166907854
0.37222222222222223,0.1329304930865034
0.375,-0.020984414154021636
0.37777777777777777,0.011702371692346225
0.38055555555555554,0.05529833140975547
0.38333333333333336,0.252403281609552
0.3861111111111111,0.07694758699892672
0.3888888888888889,0.10002123621850259
0.39166666666666666,0.04882871247339407
0.39444444444444443,0.12890262232254585
0.3972222222222222,0.13684519582920845
0.4,0.09944374773683266
0.4027777777777778,0.1827045134906519
0.40555555555555556,0.2275881768176952
0.4083333333333333,0.24931747145645622
0.4111111111111111,0.13019425406221677
0.41388888888888886,0.08208960955747824
0.4166666666666667,0.05356402606017665
0.41944444444444445,0.08995172598446297
0.4222222222222222,0.12334362521410072
0.425,0.15235676598436237
0.42777777777777776,0.16893247999965802
0.4305555555555556,0.03876880178373117
0.43333333333333335,0.1769900329764637
0.4361111111111111,0.09004047259090879
0.4388888888888889,0.13815622058149274
0.44166666666666665,0.21688537597788218
0.4444444444444444,0.15957271890652638
0.44722222222222224,0.2680271406757075
0.45,0.04062586515427352
0.4527777777777778,0.17263055815824122
0.45555555555555555,0.14314978533200226
0.4583333333333333,0.16557686086435106
0.46111111111111114,0.20279151344699342
0.4638888888888889,0.12737500929724357
0.4666666666666667,0.11937752939638782
0.46944444444444444,0.17764694794711722
0.4722222222222222,0.2079872315204374
0.475,0.05909840182123979
0.4777777777777778,0.03722048316397317
0.48055555555555557,0.17047935661218855
0.48333333333333334,0.19350013038527128
0.4861111111111111,0.2375606165693737
0.4888888888888889,0.24078342763680188
0.49166666666666664,0.16577356142187039
0.49444444444444446,0.0862417297931638
0.49722222222222223,0.15188597306770696
0.5,0.06344112839912322
0.5027777777777778,0.16464596513682633
0.5055555555555555,0.14285773651064193
0.5083333333333333,0.097132931677042
0.5111111111111111,0.17209601311769196
0.5138888888888888,0.12069976904978533
0.5166666666666667,0.1493792808907201
0.5194444444444445,0.22094418554371587
0.5222222222222223,0.23403760289703812
0.525,0.11516556187905111
0.5277777777777778,0.11738646867016035
0.5305555555555556,0.10914238737641743
0.5333333333333333,0.20471158845725693
0.5361111111111111,0.2240681987532774
0.5388888888888889,0.09882115149797313
0.5416666666666666,0.12845659500371787
0.5444444444444444,0.18699813475329968
0.5472222222222223,0.11823786091002295
0.55,0.18587649164580222
0.5527777777777778,0.18537614065178853
0.5555555555555556,0.13198287124406866
0.5583333333333333,0.27585150295856015
0.5611111111111111,0.13014323631322544
0.5638888888888889,0.2501760684173876
0.5666666666666667,0.10988525952318022
0.5694444444444444,0.23465956568815116
0.5722222222222222,0.18248173636091966
0.575,0.06979458753890125
0.5777777777777777,0.09250265255938524
0.5805555555555556,0.1513386712723206
0.5833333333333334,0.09555687006844958
0.5861111111111111,0.26366808270331415
0.5888888888888889,0.19962693040149318
0.5916666666666667,0.26166856165102054
0.5944444444444444,0.1507163825408097
0.5972222222222222,0.2335377172751058
0.6,0.2525809155578163
0.6027777777777777,0.20801605813615057
0.6055555555555555,0.2692935378737602
0.6083333333333333,0.17832096341492445
0.6111111111111112,0.15237681179798485
0.6138888888888889,0.1863132617562781
0.6166666666666667,0.0787686841415422
0.6194444444444445,0.2824374105099611
0.6222222222222222,0.19018432515279535
0.625,0.2144169248917438
0.6277777777777778,0.3148360531140993
0.6305555555555555,0.15411019958975136
0.6333333333333333,0.06645466818569083
0.6361111111111111,0.21179424887453174
0.6388888888888888,0.18310121785331235
0.6416666666666667,0.18590943205355237
0.6444444444444445,0.33551253401521797
0.6472222222222223,0.1482879586380359
0.65,0.17362617425775673
0.6527777777777778,0.03772508921011984
0.6555555555555556,0.04418743888160996
0.6583333333333333,0.05194626457145633
0.6611111111111111,0.17980496201067955
0.6638888888888889,0.2340551162342225
0.6666666666666666,0.17519644068865417
0.6694444444444444,0.2583828651231073
0.6722222222222223,0.14507169796190478
0.675,0.20010518264365093
0.6777777777777778,0.13752186961885005
0.6805555555555556,0.18096579677570676
0.6833333333333333,0.34571807281341466
0.6861111111111111,0.2560248804949654
0.6888888888888889,0.1843623883404054
0.6916666666666667,0.17899741273205427
0.6944444444444444,0.04856443115559286
0.6972222222222222,0.22645363973137816
0.7,0.19482267374155657
0.7027777777777777,0.22355748087425625
0.7055555555555556,0.2356044613832609
0.7083333333333334,0.20118849413544962
0.7111111111111111,0.15895879634563256
0.7138888888888889,0.09921681900717916
0.7166666666666667,0.18015088890221898
0.7194444444444444,0.2202931338934429
0.7222222222222222,0.3207745157735736
0.725,0.257749006876483
0.7277777777777777,0.13730415004005508
0.7305555555555555,0.2118462066468209
0.7333333333333333,0.20593694236140014
0.7361111111111112,0.2417706174022592
0.7388888888888889,0.2460656229820463
0.7416666666666667,0.07030825189575188
0.7444444444444445,0.17986864501745242
0.7472222222222222,0.34566483491353484
0.75,0.13825650611745305
0.7527777777777778,0.20150876838485446
0.7555555555555555,0.04489701884852289
0.7583333333333333,0.17116289336611953
0.7611111111111111,0.21008314416072332
0.7638888888888888,0.2892622932260709
0.7666666666666667,0.25202958796133657
0.7694444444444445,0.20188413314800402
0.7722222222222223,0.036366559163264256
0.775,0.0900638154398903
0.7777777777777778,0.15441493221634767
0.7805555555555556,0.19600952940422645
0.7833333333333333,0.21613787027895023
0.7861111111111111,0.2373043895137187
0.7888888888888889,0.2157237687121258
0.7916666666666666,0.1648254319591595
0.7944444444444444,0.25240515439017436
0.7972222222222223,0.15333404429267503
0.8,0.11727843632741328
0.8027777777777778,0.2887246858276385
0.8055555555555556,0.26220763878229403
0.8083333333333333,0.2576365993127379
0.8111111111111111,0.2252832022473671
0.8138888888888889,0.2583229712173857
0.8166666666666667,0.2661815400800327
0.8194444444444444,0.26184075576370736
0.8222222222222222,0.360120396983815
0.825,0.4254618748437472
0.8277777777777777,0.35950779078987954
0.8305555555555556,0.2970941966117143
0.8333333333333334,0.4124711112045931
0.8361111111111111,0.40288836024157854
0.8388888888888889,0.428773227428296
0.8416666666666667,0.4742160790888597
0.8444444444444444,0.47879937805701667
0.8472222222222222,0.4519321636017367
0.85,0.46696538509629454
0.8527777777777777,0.5194157069487095
0.8555555555555555,0.6023235606578985
0.8583333333333333,0.6160136709210423
0.8611111111111112,0.6664224240641099
0.8638888888888889,0.769664366910958
0.8666666666666667,0.7957334779525265
0.8694444444444445,0.7795578260742203
0.8722222222222222,0.7737723526608732
0.875,0.7227072338631705
0.8777777777777778,0.7103412550027061
0.8805555555555555,0.7664520761914304
0.8833333333333333,0.6738476521734569
0.8861111111111111,0.7862926334649921
0.8888888888888888,0.7951191496264451
0.8916666666666667,0.7540319362468075
0.8944444444444445,0.7473547387441507
0.8972222222222223,0.6304524344534777
0.9,0.637963380196708
0.9027777777777778,0.6736431052253097
0.9055555555555556,0.6613475620093849
0.9083333333333333,0.5215096192747507
0.9111111111111111,0.5115593387033464
0.9138888888888889,0.342799818344373
0.9166666666666666,0.31416605588041185
0.9194444444444444,0.3112037670915527
0.9222222222222223,0.24629404645199765
0.925,0.16948119030885755
0.9277777777777778,0.11429871735102247
0.9305555555555556,0.13338548340468093
0.9333333333333333,0.01374333468674516
0.9361111111111111,-0.01384849437781029
0.9388888888888889,-0.18172619837881582
0.9416666666666667,-0.08481565434052461
0.9444444444444444,-0.16937364447583447
0.9472222222222222,-0.132172714659945
0.95,-0.36151375582915846
0.9527777777777777,-0.3409988011119764
0.9555555555555556,-0.32803194124684465
0.9583333333333334,-0.44025660090168717
0.9611111111111111,-0.36793270574342424
0.9638888888888889,-0.28833633792089336
0.9666666666666667,-0.3029988024544238
0.9694444444444444,-0.4250802033957406
0.9722222222222222,-0.2588115743740557
0.975,-0.4299112451022691
0.9777777777777777,-0.4408153415752197
0.9805555555555555,-0.17339987399026763
0.9833333333333333,-0.30194640477082446
0.9861111111111112,-0.2792775694282421
0.9888888888888889,-0.30149753566300175
0.9916666666666667,-0.24805536022815033
0.9944444444444445,-0.385144199011433
0.9972222222222222,-0.2868602680613034
1.0,-0.060296214832920775
1.0027777777777778,-0.0937751650282101
1.0055555555555555,-0.017003525099540243
1.0083333333333333,-0.14210305978453913
1.011111111111111,-0.05761001330702801
1.0138888888888888,-0.1737020329249823
1.0166666666666666,-0.14983350314051705
1.0194444444444444,0.010047825717866603
1.0222222222222221,-0.001298847317276892
1.025,0.03741553620615219
1.0277777777777777,-0.029200971817313306
1.0305555555555554,-0.02892102431573615
1.0333333333333334,0.025994470665445336
1.0361111111111112,0.04523277695112556
1.038888888888889,-0.0030795867580167557
1.0416666666666667,0.050349701198709074
1.0444444444444445,0.17216857312913011
1.0472222222222223,0.05641291657834875
1.05,0.04035262539814264
1.0527777777777778,0.001500476544927215
1.0555555555555556,0.11346366196557386
1.0583333333333333,0.07184881799028243
1.0611111111111111,0.0616741217653579
1.0638888888888889,0.17722910124080887
1.0666666666666667,0.1517180817281264
1.0694444444444444,0.16749014947066526
1.0722222222222222,0.19397097929854185
1.075,0.0818130086416569
1.0777777777777777,0.09471399246961372
1.0805555555555555,0.04822468891632854
1.0833333333333333,-0.05894367630234926
1.086111111111111,0.12691862981950117
1.0888888888888888,-0.03435147808054095
1.0916666666666666,-0.003989360368932729
1.0944444444444446,0.11814466456806079
1.0972222222222223,-0.0034038646133003735
1.1,0.028119843449793517
1.1027777777777779,-0.0294620092015198
1.1055555555555556,0.0735419495191183
1.1083333333333334,-0.07803084841895348
1.1111111111111112,-0.006869708868613052
1.113888888888889,-0.15338397507342283
1.1166666666666667,-0.1503661517854623
1.1194444444444445,-0.08770731442138874
1.1222222222222222,-0.11171329976666854
1.125,-0.049552569067355945
1.1277777777777778,-0.0724154273772799
1.1305555555555555,-0.07628421124013454
1.1333333333333333,-0.16934040048085536
1.136111111111111,-0.2257154485290655
1.1388888888888888,-0.22855756072492472
1.1416666666666666,-0.09889874938537516
1.1444444444444444,-0.16017526284352834
1.1472222222222221,-0.16541859799512176
1.15,-0.29148482874695314
1.1527777777777777,-0.29927303535056143
1.1555555555555554,-0.08592756763354109
1.1583333333333334,-0.27375267217055427
1.1611111111111112,-0.10899750751984424
1.163888888888889,-0.09599997378965021
1.1666666666666667,-0.1443682617628322
1.1694444444444445,-0.22016127710849362
1.1722222222222223,-0.21838257045406825
1.175,-0.22366976479313333
1.1777777777777778,-0.23609429974571533
1.1805555555555556,-0.21172808251998518
1.1833333333333333,-0.13797385649961585
1.1861111111111111,-0.2342885673754614
1.1888888888888889,-0.31325718743316955
1.1916666666666667,-0.07261618772097575
1.1944444444444444,-0.24111864843127256
1.1972222222222222,-0.15079973281373782
1.2,-0.15380872285944264
1.2027777777777777,-0.13719531556334508
1.2055555555555555,-0.10585396859359747
1.2083333333333333,-0.11017950292362381
1.211111111111111,-0.11190279421440508
1.2138888888888888,-0.16784081839572532
1.2166666666666666,-0.19499146583303376
1.2194444444444446,-0.07455413092376038
1.2222222222222223,-0.003271010457671142
1.225,-0.15551459202874096
1.2277777777777779,0.015592905398173505
1.2305555555555556,-0.12153472939654597
1.2333333333333334,-0.1740286994016103
1.2361111111111112,-0.20176734274399086
1.238888888888889,-0.10690714319083847
1.2416666666666667,-0.06053984286147379
1.2444444444444445,0.18366219020348
1.2472222222222222,0.09603315608855756
1.25,-0.0029777237728166282
1.2527777777777778,-0.03736214372844923
1.2555555555555555,0.079970705490753
1.2583333333333333,-0.12852574325414354
1.261111111111111,0.022168607792828192
1.2638888888888888,0.12398230458968876
1.2666666666666666,0.23215499724777505
1.2694444444444444,-0.006209545916879569
1.2722222222222221,0.007241206755358651
1.275,0.048990839556558606
1.2777777777777777,0.22110865396185503
1.2805555555555554,0.20360009648255994
1.2833333333333334,0.132547359309265
1.2861111111111112,0.16665593696507006
1.288888888888889,0.15175508557401216
1.2916666666666667,0.025260886957278753
1.2944444444444445,0.1828856322632449
1.2972222222222223,0.09889601992387066
1.3,0.2187639241193203
1.3027777777777778,0.13391358358362188
1.3055555555555556,0.120989611569052
1.3083333333333333,0.1990969451903469
1.3111111111111111,0.11519062517661494
1.3138888888888889,0.13752885261478756
1.3166666666666667,0.23518852947411867
1.3194444444444444,0.19419246522687272
1.3222222222222222,0.32685666310351014
1.325,0.1911086109068565
1.3277777777777777,0.2014435595554801
1.3305555555555555,0.11406233580064545
1.3333333333333333,0.2706115124554117
1.336111111111111,0.11955507569586904
1.3388888888888888,0.2520213208532576
1.3416666666666666,0.17533991029941676
1.3444444444444446,0.18190443828425906
1.3472222222222223,0.20031293850820128
1.35,0.2507214930538349
1.3527777777777779,0.0840891349797224
1.3555555555555556,0.20466304422394865
1.3583333333333334,0.22893182692088868
1.3611111111111112,0.08068750383114962
1.363888888888889,0.16396490089935833
1.3666666666666667,0.22999302998598894
1.3694444444444445,0.2659788991179694
1.3722222222222222,0.05716604728957378
1.375,0.23253899921923327
1.3777777777777778,0.13928982991571717
1.3805555555555555,0.23074702444706635
1.3833333333333333,0.25106943127334636
1.386111111111111,0.15615671113684354
1.3888888888888888,0.18190083938685786
1.3916666666666666,0.31827600463330996
1.3944444444444444,0.1633693810552038
1.3972222222222221,0.17634434814112532
1.4,0.13201689704744768
1.4027777777777777,0.17172564485565445
1.4055555555555554,0.15356683055393133
1.4083333333333334,0.17370324570022816
1.4111111111111112,0.13124836616097554
1.413888888888889,0.13749233828228247
1.4166666666666667,0.13356052446586864
1.4194444444444445,0.09310796521783408
1.4222222222222223,0.24661041552287125
1.425,0.15065230649776923
1.4277777777777778,0.1816661369476307
1.4305555555555556,0.1993612098523821
1.4333333333333333,0.1469084556426749
1.4361111111111111,0.10791189990653227
1.4388888888888889,0.29989731555987886
1.4416666666666667,0.14140248883640358
1.4444444444444444,0.31154317363282663
1.4472222222222222,0.2534931269328798
1.45,0.22686262157996076
1.4527777777777777,0.1943250442758791
1.4555555555555555,0.09277881215952158
1.4583333333333333,0.22151777692711908
1.461111111111111,0.281544296731316
1.4638888888888888,0.20930177878856865
1.4666666666666666,0.24906851738319724
1.4694444444444446,0.1247689569804637
1.4722222222222223,0.2152193867013919
1.475,0.11288174085335209
1.4777777777777779,0.08608422761521212
1.4805555555555556,0.15235119680483256
1.4833333333333334,0.12233104300170781
1.4861111111111112,0.11834157485271316
1.488888888888889,0.2958154158036919
1.4916666666666667,0.08784355463588832
1.4944444444444445,0.2731544309164932
1.4972222222222222,-0.006840164854127084
1.5,0.21869928189879756
1.5027777777777778,0.13669800107937347
1.5055555555555555,0.27315430456141654
1.5083333333333333,0.1346720188677926
1.511111111111111,0.0010499626345535085
1.5138888888888888,0.09802960380864317
1.5166666666666666,0.1637541904940903
1.5194444444444444,0.08310273405650605
1.5222222222222221,0.12817354513506432
1.525,0.21292859009220017
1.5277777777777777,0.17665095567773917
1.5305555555555554,0.1888953805046899
1.5333333333333334,0.1906992094276207
1.5361111111111112,0.11401299843834602
1.538888888888889,0.12645003072323588
1.5416666666666667,0.28834947068166783
1.5444444444444445,0.12338017411318966
1.5472222222222223,0.13203631328594478
1.55,0.18027138523536657
1.5527777777777778,0.15150738529756644
1.5555555555555556,0.10628876435475029
1.5583333333333333,0.11498074882378893
1.5611111111111111,0.21683380635519228
1.5638888888888889,0.2663697816769726
1.5666666666666667,0.1569255534525362
1.5694444444444444,0.10894623617299304
1.5722222222222222,0.2701608349825252
1.575,0.051235032476003944
1.5777777777777777,0.09192770571470768
1.5805555555555555,0.023067914327894345
1.5833333333333333,0.27011555437649576
1.586111111111111,0.12758342830502553
1.5888888888888888,0.18695456316947348
1.5916666666666666,0.1432784905303808
1.5944444444444446,0.1411743892210027
1.5972222222222223,0.11682563630677344
1.6,0.13700014995597298
1.6027777777777779,0.22512471966075423
1.6055555555555556,0.24232282019436172
1.6083333333333334,0.17865890041007043
1.6111111111111112,0.1093253708236391
1.613888888888889,0.12264447972060043
1.6166666666666667,0.10016975382617196
1.6194444444444445,0.1599198595212136
1.6222222222222222,0.1082842794385962
1.625,0.12823103463908736
1.6277777777777778,0.21923794449577594
1.6305555555555555,0.18051977258420399
1.6333333333333333,0.09709847036442595
1.636111111111111,0.08372003655337906
1.6388888888888888,0.09636418958347631
1.6416666666666666,0.18920563864144008
1.6444444444444444,0.1619291219056595
1.6472222222222221,0.10704084757393578
1.65,0.009783519127539747
1.6527777777777777,0.17596023643295233
1.6555555555555554,0.0978672167792159
1.6583333333333334,0.15341233113125358
1.6611111111111112,0.14870632920787905
1.663888888888889,0.10316717044795415
1.6666666666666667,0.19172750067571445
1.6694444444444445,0.17677740337837636
1.6722222222222223,0.1858643198957708
1.675,0.09800850943589015
1.6777777777777778,0.06849653957761359
1.6805555555555556,0.03673832399326375
1.6833333333333333,0.10799698482851838
1.6861111111111111,0.16278330510817282
1.6888888888888889,0.21099709150550733
1.6916666666666667,0.18818275768952233
1.6944444444444444,0.02312695433603025
1.6972222222222222,0.16169756742148556
1.7,0.009466475800393781
1.7027777777777777,0.2896288569666502
1.7055555555555555,0.264753164649569
1.7083333333333333,0.22691710448448207
1.711111111111111,0.17088063407983942
1.7138888888888888,0.02360418325599005
1.7166666666666666,0.17664276367523957
1.7194444444444446,0.1394934275297873
1.7222222222222223,0.15761963467011264
1.725,0.11725227129871378
1.7277777777777779,0.0670304655883939
1.7305555555555556,0.10031335494052629
1.7333333333333334,0.23570546287754013
1.7361111111111112,0.14523028486065484
1.738888888888889,0.051861533649295355
1.7416666666666667,0.13498130171944756
1.7444444444444445,0.18752623947724545
1.7472222222222222,0.2506493314079322
1.75,0.22362966185169134
1.7527777777777778,0.1405547998135501
1.7555555555555555,0.15118024879124747
1.7583333333333333,0.09234730622486001
1.761111111111111,0.1101959905041021
1.7638888888888888,0.12829556069162637
1.7666666666666666,0.1744405645811576
1.7694444444444444,0.1941583005647265
1.7722222222222221,0.082334350037475
1.775,0.14448827857136542
1.7777777777777777,0.03614672974176561
1.7805555555555554,0.1474437661716785
1.7833333333333334,0.14804101725184896
1.7861111111111112,0.12091266375852969
1.788888888888889,0.15079578998843843
1.7916666666666667,0.05958324073700365
1.7944444444444445,0.11785328948470744
1.7972222222222223,0.11667903213848875
1.8,0.1374468413918386
1.8027777777777778,0.08617830140580875
1.8055555555555556,0.129807488265555
1.8083333333333333,0.2168264664183144
1.8111111111111111,0.1117070042810455
1.8138888888888889,0.23978485732501215
1.8166666666666667,0.14518633767268194
1.8194444444444444,0.35344594422454734
1.8222222222222222,0.1202111989681806
1.825,0.19392043906645762
1.8277777777777777,0.25739116848844457
1.8305555555555555,0.19869056067421567
1.8333333333333333,0.22027171094581266
1.836111111111111,0.2337379686258676
1.8388888888888888,0.2635396584902965
1.8416666666666666,0.28451746326622496
1.8444444444444446,0.2681227942915257
1.8472222222222223,0.3270221851233789
1.85,0.19463429017086578
1.8527777777777779,0.12429211064545061
1.8555555555555556,0.1673906666699857
1.8583333333333334,0.0893545676383813
1.8611111111111112,0.2297271563460347
1.863888888888889,0.15096017453281307
1.8666666666666667,0.06304000801841941
1.8694444444444445,0.12065728413779438
1.8722222222222222,0.04710759436349929
1.875,0.10536403022352761
1.8777777777777778,0.14621802894984176
1.8805555555555555,0.12387086243265502
1.8833333333333333,0.15542001223986016
1.886111111111111,0.1818783046616707
1.8888888888888888,0.034186365860836065
1.8916666666666666,0.1499802626937791
1.8944444444444444,-0.022122984356951217
1.8972222222222221,0.0008315432014971702
1.9,0.19275207612815057
1.9027777777777777,0.04940165930954589
1.9055555555555554,0.17666637278289424
1.9083333333333334,0.09631969456483494
1.9111111111111112,0.14300976155688427
1.913888888888889,-0.04202965271417877
1.9166666666666667,0.08334884679546065
1.9194444444444445,0.07438225779213296
1.9222222222222223,0.0334240793702659
1.925,0.0988303322778801
1.9277777777777778,0.2524157056628349
1.9305555555555556,0.24707312980264573
1.9333333333333333,-0.005613617543661825
1.9361111111111111,0.0055643206028327535
1.9388888888888889,0.16841596101405293
1.9416666666666667,-0.027768194748047953
1.9444444444444444,0.08505672873504068
1.9472222222222222,0.1342249391377481
1.95,0.026029469772462066
1.9527777777777777,0.04281523721817865
1.9555555555555555,0.08362889885998358
1.9583333333333333,-0.010251988466102951
1.961111111111111,0.16921084408478185
1.9638888888888888,0.17082470761253693
1.9666666666666666,0.14238106178028992
1.9694444444444446,0.03184519658278606
1.9722222222222223,0.04631352532046577
1.975,0.049798618020668144
1.9777777777777779,0.0846517909760754
1.9805555555555556,0.1650460427917813
1.9833333333333334,0.11210587955904724
1.9861111111111112,0.20601720787008534
1.988888888888889,0.21499836995163427
1.9916666666666667,0.2951962445013028
1.9944444444444445,0.29463925267781627
1.9972222222222222,0.3586083228189318
2.0,0.45782026703448864
2.0027777777777778,0.6682908663356335
2.0055555555555555,0.796828441545834
2.0083333333333333,1.0685411275505703
2.011111111111111,1.0799474374079434
2.013888888888889,1.1861815076371622
2.0166666666666666,1.1260969528175997
2.0194444444444444,1.157394879204301
2.022222222222222,1.150203429969712
2.025,1.0016525593537644
2.0277777777777777,0.8116882289553865
2.0305555555555554,0.5312636854902977
2.033333333333333,0.4833652362159653
2.036111111111111,0.33656527777124345
2.0388888888888888,0.3428511637309019
2.0416666666666665,0.24147556534748024
2.0444444444444443,0.1345783694097866
2.047222222222222,0.1687703418141126
2.05,0.015633422119295987
2.0527777777777776,-0.09925488149002806
2.0555555555555554,-0.21684261077525785
2.058333333333333,-0.16533559133788803
2.061111111111111,-0.09149690850736072
2.063888888888889,-0.16295683623898474
2.066666666666667,-0.13089670397022307
2.0694444444444446,-0.12083180939502805
2.0722222222222224,-0.18005189952036124
2.075,-0.28403587252353674
2.077777777777778,-0.09672651175765584
2.0805555555555557,-0.06364736745314688
2.0833333333333335,-0.0256709674572142
2.0861111111111112,0.016606776987997743
2.088888888888889,0.08484029495670889
2.091666666666667,-0.06121399195677897
2.0944444444444446,0.013204043331641411
2.0972222222222223,0.06977923521567682
2.1,0.10399529363156106
2.102777777777778,0.09033624771455732
2.1055555555555556,0.1604060032148885
2.1083333333333334,-0.07476904984317417
2.111111111111111,0.04889158993390023
2.113888888888889,0.08478234082669091
2.1166666666666667,0.034744319676394256
2.1194444444444445,0.09014716148800064
2.1222222222222222,0.07737393284103085
2.125,0.10097651749124786
2.1277777777777778,0.1517804840342802
2.1305555555555555,0.0935828638841002
2.1333333333333333,0.08858218032084744
2.136111111111111,0.029696881016947837
2.138888888888889,0.15316222117782763
2.1416666666666666,0.08462935635848096
2.1444444444444444,0.08050363005998391
2.147222222222222,0.1868102288941384
2.15,0.06389553807890475
2.1527777777777777,0.034160293641233505
2.1555555555555554,-0.13326504946377066
2.158333333333333,0.11572050748422155
2.161111111111111,0.16695264441011665
2.1638888888888888,0.13670992866054135
2.1666666666666665,0.21025410453996426
2.1694444444444443,0.11323352526269345
2.172222222222222,0.20683688004846223
2.175,0.02520152681631986
2.1777777777777776,0.0468274765414313
2.1805555555555554,0.08235449608863255
2.183333333333333,0.14004652304349713
2.186111111111111,0.11581473411832606
2.188888888888889,0.15945613196150965
2.191666666666667,0.11017407278253474
2.1944444444444446,-0.0009715638554153999
2.1972222222222224,0.047950161947502096
2.2,0.05125827422724486
2.202777777777778,0.1805208979611003
2.2055555555555557,0.11885205210687624
2.2083333333333335,0.2019514365900324
2.2111111111111112,0.06993131707555716
2.213888888888889,0.0395154396745189
2.216666666666667,0.09390282893101992
2.2194444444444446,-0.010698314384340712
2.2222222222222223,0.2491154901062127
2.225,0.18038138291202435
2.227777777777778,0.21301007995575894
2.2305555555555556,0.1333264626027807
2.2333333333333334,0.06695046461202706
2.236111111111111,0.07407181193849724
2.238888888888889,0.17097152601290078
2.2416666666666667,0.23877740639893985
2.2444444444444445,0.3301783623770115
2.2472222222222222,0.2792921840078687
2.25,0.3111776051113877
2.2527777777777778,0.295284328403153
2.2555555555555555,0.23500385140818192
2.2583333333333333,0.1650729189507912
2.261111111111111,0.1887194293158814
2.263888888888889,0.2275564954369208
2.2666666666666666,0.31621167304342856
2.2694444444444444,0.30681735204686944
2.272222222222222,0.3570196962056476
2.275,0.19039944570269068
2.2777777777777777,0.20762537278567897
2.2805555555555554,0.3297611783500013
2.283333333333333,0.3326182696710187
2.286111111111111,0.27086758326160015
2.2888888888888888,0.4116766691391741
2.2916666666666665,0.3058784261125078
2.2944444444444443,0.36353564747547984
2.297222222222222,0.28876459872223026
2.3,0.2989088657889535
2.3027777777777776,0.2757530534331866
2.3055555555555554,0.4195065100447816
2.308333333333333,0.35645008674559897
2.311111111111111,0.2518065683338237
2.313888888888889,0.2357066458892236
2.316666666666667,0.29429824387069137
2.3194444444444446,0.35598428480295735
2.3222222222222224,0.34076755711718254
2.325,0.22808555718
2.327777777777778,0.22623624105800508
2.3305555555555557,0.24766504461289773
2.3333333333333335,0.24420347969391396
2.3361111111111112,0.16797955405846682
2.338888888888889,0.2773854272944387
2.341666666666667,0.19641652358722617
2.3444444444444446,0.18527173587534046
2.3472222222222223,0.1897348687642515
2.35,0.20039689181660128
2.352777777777778,0.01939346721451264
2.3555555555555556,0.2091935193699185
2.3583333333333334,0.16968709626999962
2.361111111111111,0.11557462407862423
2.363888888888889,0.13017324127359944
2.3666666666666667,0.1737299880842586
2.3694444444444445,0.13918640442076058
2.3722222222222222,0.0711733112548276
2.375,0.09707051707555694
2.3777777777777778,0.12575454628856
2.3805555555555555,0.04219847127072568
2.3833333333333333,0.05795525629219541
2.386111111111111,0.19857119287714933
2.388888888888889,0.1196417547173689
2.3916666666666666,0.06669180030433841
2.3944444444444444,0.17882161687638853
2.397222222222222,-0.04351976109254399
2.4,0.13535922796053068
2.4027777777777777,0.0885542938571428
2.4055555555555554,0.12136979391935057
2.408333333333333,0.13187137576741723
2.411111111111111,0.09906106154107078
2.4138888888888888,0.06713013703042489
2.4166666666666665,-0.01867150379746979
2.4194444444444443,0.036864528551533354
2.422222222222222,-0.01220359677563053
2.425,0.0771838458552771
2.4277777777777776,-0.004327565241083603
2.4305555555555554,0.11293368941715994
2.433333333333333,0.03213562230656701
2.436111111111111,0.07985425879539781
2.438888888888889,0.04653345617703895
2.441666666666667,-0.008706409432386264
2.4444444444444446,0.06015107182156857
2.4472222222222224,0.09907600719617832
2.45,0.11844002410239857
2.452777777777778,-0.0073178413556135875
2.4555555555555557,-0.0596425977033061
2.4583333333333335,-0.06507466643609558
2.4611111111111112,-0.0005406605276800126
2.463888888888889,-0.037483892404929116
2.466666666666667,0.03992500889446661
2.4694444444444446,0.11094527342581764
2.4722222222222223,-0.08317567019583566
2.475,0.006394115411065923
2.477777777777778,0.03088551956011868
2.4805555555555556,-0.06865586199060782
2.4833333333333334,-0.004769598933320761
2.486111111111111,0.030541903084948144
2.488888888888889,0.047417180224604324
2.4916666666666667,-0.09200902810380614
2.4944444444444445,0.06082852213351534
2.4972222222222222,0.06846681100561892
2.5,-0.034251105357786346
2.5027777777777778,0.11640026115739655
2.5055555555555555,0.17434894783120058
2.5083333333333333,0.07692090945441672
2.511111111111111,0.13786921096691174
2.513888888888889,-0.0025594971726787246
2.5166666666666666,-0.038346824413078184
2.5194444444444444,0.03291752780553251
2.522222222222222,0.05367367124416218
2.525,-0.1361624052826992
2.5277777777777777,0.07092554751658074
2.5305555555555554,0.061368722654877396
2.533333333333333,0.08793550591369695
2.536111111111111,0.05957062685050357
2.5388888888888888,0.07057950071429663
2.5416666666666665,0.1637221105422641
2.5444444444444443,0.10415026840829106
2.547222222222222,-0.09581488060596788
2.55,-0.015583778007286208
2.5527777777777776,0.13757010696082198
2.5555555555555554,0.0005134725169675114
2.558333333333333,0.0014977795799151325
2.561111111111111,-0.0054984572565300455
2.563888888888889,0.11995605936826334
2.566666666666667,0.026285362735679996
2.5694444444444446,-0.0052267127894492435
2.5722222222222224,-0.01842611416919025
2.575,0.03588670631895914
2.577777777777778,0.0010100731563429145
2.5805555555555557,0.016246481179536032
2.5833333333333335,0.12104234550881746
2.5861111111111112,0.16782273285517116
2.588888888888889,0.17955938399321447
2.591666666666667,-0.016127703159630774
2.5944444444444446,0.2198877654356208
2.5972222222222223,0.19914073975449165
2.6,0.476632255579286
2.602777777777778,0.5120787597404192
2.6055555555555556,0.667743562517051
2.6083333333333334,0.8036655607693319
2.611111111111111,0.9817430456679553
2.613888888888889,0.9311076806564894
2.6166666666666667,1.0941900068563097
2.6194444444444445,0.9201279936257453
2.6222222222222222,0.8290652922872457
2.625,0.875779512250406
2.6277777777777778,0.6045308282584134
2.6305555555555555,0.4909515835382965
2.6333333333333333,0.3948184577214072
2.636111111111111,0.28553181624627394
2.638888888888889,0.1878841452313955
2.6416666666666666,0.10364025663543677
2.6444444444444444,0.07020539061762224
2.647222222222222,0.10585457117200998
2.65,-0.10087528967263168
2.6527777777777777,-0.12376720280253362
2.6555555555555554,-0.18379201739012707
2.658333333333333,-0.18815782217354338
2.661111111111111,-0.11904067162325524
2.6638888888888888,-0.15887417478733143
2.6666666666666665,-0.26820361081346306
2.6694444444444443,-0.17746796227928707
2.672222222222222,-0.21666803345122285
2.675,-0.2852777764728659
2.6777777777777776,-0.26360033629354107
2.6805555555555554,-0.0702823352413322
2.683333333333333,-0.08753400199280692
2.686111111111111,-0.0808378663566112
2.688888888888889,0.03961501039786446
2.691666666666667,-0.04849345057068674
2.6944444444444446,0.01899851482665623
2.6972222222222224,0.04288038649299358
2.7,-0.02616708476781465
2.702777777777778,0.03391070890605083
2.7055555555555557,0.03605756122548704
2.7083333333333335,0.02612085830727809
2.7111111111111112,-0.07570944814940342
2.713888888888889,-0.1168522048136713
2.716666666666667,-0.07107731305524348
2.7194444444444446,0.03924615315481822
2.7222222222222223,-0.011789975101808015
2.725,0.031170749660648846
2.727777777777778,0.06637812321028988
2.7305555555555556,-0.027705568880752613
2.7333333333333334,-0.05012079502101044
2.736111111111111,0.07205158612365167
2.738888888888889,0.02405082649149895
2.7416666666666667,0.020275291263086626
2.7444444444444445,-0.026787582494002954
2.7472222222222222,-0.06874051222686359
2.75,0.15437054507621095
2.7527777777777778,-0.04486096457108771
2.7555555555555555,-0.06857599868247993
2.7583333333333333,-0.012483069977005844
2.761111111111111,0.05979545192073711
2.763888888888889,0.15317146212129076
2.7666666666666666,0.052058740735137304
2.7694444444444444,0.16577539906343114
2.772222222222222,0.019559224048535766
2.775,-0.051868623908846986
2.7777777777777777,0.09165233519400934
2.7805555555555554,0.0518463070285444
2.783333333333333,0.029137775844226554
2.786111111111111,0.04176606450390541
2.7888888888888888,0.004710446680296361
2.7916666666666665,0.07208639267744887
2.7944444444444443,0.029902072626613506
2.797222222222222,0.0645095709077475
2.8,0.002192602227002141
2.8027777777777776,0.052639781343667105
2.8055555555555554,0.04718894585298844
2.808333333333333,0.11636544297683962
2.811111111111111,0.062351113214426074
2.813888888888889,-0.13321580608693856
2.816666666666667,-0.011095768852907122
2.8194444444444446,0.07303173882254657
2.8222222222222224,0.14852333387397676
2.825,0.13311304036275176
2.827777777777778,0.14861967162454595
2.8305555555555557,0.08046074060131041
2.8333333333333335,0.04701367650124331
2.8361111111111112,-0.03794394365598186
2.838888888888889,0.020301101799970037
2.841666666666667,0.12804313753456542
2.8444444444444446,0.1281767284604633
2.8472222222222223,0.13474014804208423
2.85,0.12980538033250533
2.852777777777778,0.11234657686780188
2.8555555555555556,0.17452628902304584
2.8583333333333334,0.09743721872950871
2.861111111111111,0.19036909301033325
2.863888888888889,0.18748945300564784
2.8666666666666667,0.332149193077945
2.8694444444444445,0.23422977959398392
2.8722222222222222,0.2769381035394767
2.875,0.17959256563247994
2.8777777777777778,0.17985081232364153
2.8805555555555555,0.29704520077084806
2.8833333333333333,0.2587790843834709
2.886111111111111,0.25964871283435814
2.888888888888889,0.33335114807853766
2.8916666666666666,0.2523338897794986
2.8944444444444444,0.20129449735033966
2.897222222222222,0.2147689676757585
2.9,0.24082777702789496
2.9027777777777777,0.24194233299471046
2.9055555555555554,0.18588742635187974
2.908333333333333,0.39127481292074423
2.911111111111111,0.22098529402105827
2.9138888888888888,0.21550198542579535
2.9166666666666665,0.13157744903127905
2.9194444444444443,0.29747544868728154
2.922222222222222,0.13313472950025024
2.925,0.17019127684094854
2.9277777777777776,0.1967107276434052
2.9305555555555554,0.2408911275680679
2.933333333333333,0.15634241789389394
2.936111111111111,0.15822566337944935
2.938888888888889,0.13706254923863964
2.941666666666667,0.2346167643402075
2.9444444444444446,0.2293958559395634
2.9472222222222224,0.11313067912394337
2.95,0.043634041478823576
2.952777777777778,0.0751037027242392
2.9555555555555557,0.11537093897507898
2.9583333333333335,0.056421898059670614
2.9611111111111112,0.20679924031176553
2.963888888888889,0.07439459271646624
2.966666666666667,0.16419436450331748
2.9694444444444446,0.06761139702658532
2.9722222222222223,0.05800116056292905
2.975,0.09721771677257637
2.977777777777778,0.0900951355252727
2.9805555555555556,0.034854835490998104
2.9833333333333334,0.22244105119060092
2.986111111111111,0.01177756474515701
2.988888888888889,0.11985392152033245
2.9916666666666667,-0.0725386371435923
2.9944444444444445,-0.0558860551801283
2.9972222222222222,-0.11349046599202997
3.0,-0.002253195734732455
3.0027777777777778,0.125412309619303
3.0055555555555555,0.04606281827467336
3.0083333333333333,0.07862337938890793
3.011111111111111,0.02173135996496409
3.013888888888889,0.005108810595915857
3.0166666666666666,-0.02314431995957787
3.0194444444444444,0.07780349401441314
3.022222222222222,0.04177195594834278
3.025,0.10481855886559863
3.0277777777777777,-0.05103131905184963
3.0305555555555554,0.03772657793622802
3.033333333333333,-0.054545744391403986
3.036111111111111,0.0002868829563912479
3.0388888888888888,0.073403973520908
3.0416666666666665,0.07908311621697428
3.0444444444444443,0.14637342876401913
3.047222222222222,0.08500731464840287
3.05,0.07935592272904882
3.0527777777777776,-0.012929451939560346
3.0555555555555554,-0.05936141570342148
3.058333333333333,0.07507796567354472
3.061111111111111,0.042924944399824874
3.063888888888889,0.19640261808662185
3.066666666666667,0.17736176889942468
3.0694444444444446,0.0747242787587522
3.0722222222222224,0.04644691065713151
3.075,-0.10950550724042096
3.077777777777778,-0.04999378849637215
3.0805555555555557,-0.01795815248165395
3.0833333333333335,0.18277677151343535
3.0861111111111112,0.14187597390098086
3.088888888888889,-0.006515958460925307
3.091666666666667,0.03814559728725835
3.0944444444444446,0.010342454878816486
3.0972222222222223,-0.07331596968777411
3.1,0.062413808118901244
3.102777777777778,0.06192044422412503
3.1055555555555556,0.07011810894339983
3.1083333333333334,-0.05721896997896214
3.111111111111111,-0.009751687043280942
3.113888888888889,0.008073035721041448
3.1166666666666667,0.0027061845672006167
3.1194444444444445,0.056299602985949555
3.1222222222222222,0.016025404016238455
3.125,0.050806454991464724
3.1277777777777778,0.05952573118587295
3.1305555555555555,0.09129024056404372
3.1333333333333333,-0.017859052320483182
3.136111111111111,-0.08048602902670449
3.138888888888889,-0.04155695243325012
3.1416666666666666,-0.021941537026844732
3.1444444444444444,0.05106493679283034
3.147222222222222,0.17209957754512786
3.15,0.019263063775725387
3.1527777777777777,0.06510898171842053
3.1555555555555554,-0.025637116810626012
3.158333333333333,-0.03576180942131768
3.161111111111111,-0.030556226955291095
3.1638888888888888,-0.07166030193226242
3.1666666666666665,-0.05392173564107314
3.1694444444444443,-0.013463583733854156
3.172222222222222,0.015698450301344424
3.175,0.09520163952876515
3.1777777777777776,0.022748942771075847
3.1805555555555554,0.014688240584684382
3.183333333333333,0.0026941695319275955
3.186111111111111,0.04582583452106842
3.188888888888889,-0.04190099639311812
3.191666666666667,-0.046983257265698304
3.1944444444444446,0.03589022046966967
3.1972222222222224,-0.007270375765160868
3.2,0.008131656304460968
3.202777777777778,0.02114279969797202
3.2055555555555557,0.08203593687573323
3.2083333333333335,0.020882257513532294
3.2111111111111112,0.025715889051849385
3.213888888888889,0.02708798618961374
3.216666666666667,-0.07828518873181162
3.2194444444444446,-0.029674340911440777
3.2222222222222223,0.10004039294357917
3.225,0.07725904661051372
3.227777777777778,0.07620110237548906
3.2305555555555556,0.07135344068463761
3.2333333333333334,0.03888620603629689
3.236111111111111,-0.0796003683376431
3.238888888888889,-0.018354797449491297
3.2416666666666667,0.1395500580035416
3.2444444444444445,0.0813616781290769
3.2472222222222222,0.04337766179345226
3.25,-0.005838516737625463
3.2527777777777778,-0.11232284700203927
3.2555555555555555,0.035556812456591855
3.2583333333333333,-0.020216204058597788
3.261111111111111,0.05360150153823029
3.263888888888889,0.041604867146191826
3.2666666666666666,0.08384147850621158
3.2694444444444444,0.0012415359425749818
3.272222222222222,0.04521001264429732
3.275,0.021221787439152116
3.2777777777777777,0.046896871420409755
3.2805555555555554,0.09280266466205347
3.283333333333333,0.09541563690241839
3.286111111111111,0.010856835633692344
3.2888888888888888,0.12613231644282968
3.2916666666666665,-0.000750889008806422
3.2944444444444443,0.08307176256791324
3.297222222222222,0.0390445774000473
3.3,0.15085106279822255
3.3027777777777776,-0.009829742588992163
3.3055555555555554,0.04342877753393125
3.308333333333333,0.15543591384346614
3.311111111111111,-0.03517396194670884
3.313888888888889,-0.049329710698817766
3.316666666666667,-0.013570163975180119
3.3194444444444446,0.037012208978251415
3.3222222222222224,0.04102477264269148
3.325,0.1091583413086325
3.327777777777778,0.15946986013094006
3.3305555555555557,0.01847556160665574
3.3333333333333335,-0.07772211602389122
3.3361111111111112,-0.0021792544258110954
3.338888888888889,-0.02399110695115016
3.341666666666667,0.23992793262293557
3.3444444444444446,0.0693683439352451
3.3472222222222223,0.12398283132788844
3.35,0.035499574958730344
3.352777777777778,0.091662952981693
3.3555555555555556,-0.02798285111060962
3.3583333333333334,-0.10968632120364617
3.361111111111111,0.15559452275198835
3.363888888888889,0.1848819752062125
3.3666666666666667,-0.0076983328307941995
3.3694444444444445,0.14676325547835944
3.3722222222222222,-0.020526341248422467
3.375,0.04314399442364231
3.3777777777777778,0.0628322466713821
3.3805555555555555,0.10692940025789521
3.3833333333333333,0.21548376026137805
3.386111111111111,0.14696376700083685
3.388888888888889,0.19511926515199696
3.3916666666666666,0.13907326248424556
3.3944444444444444,0.21336584061484343
3.397222222222222,0.0963148497092863
3.4,0.12691856709587693
3.4027777777777777,0.1880248309914781
3.4055555555555554,0.03889866945284322
3.408333333333333,0.24656511449140855
3.411111111111111,0.1668778641366021
3.4138888888888888,-0.02690154179630129
3.4166666666666665,0.08508665276692196
3.4194444444444443,0.0437997647252767
3.422222222222222,0.15694377834113638
3.425,0.1428444145055214
3.4277777777777776,0.173201657541959
3.4305555555555554,0.007914124514187937
3.433333333333333,-0.025993051713196044
3.436111111111111,-0.024354686738444525
3.438888888888889,0.04579028377195227
3.441666666666667,0.04357539620874801
3.4444444444444446,-0.030101980141674145
3.4472222222222224,0.04656201471976658
3.45,-0.015098602004792419
3.452777777777778,0.0008665828971770421
3.4555555555555557,-0.03596379403802325
3.4583333333333335,0.05823474218982144
3.4611111111111112,-0.06107465875220083
3.463888888888889,0.09578223838385994
3.466666666666667,0.15260259169366452
3.4694444444444446,0.020284666268143084
3.4722222222222223,0.08199920185342069
3.475,0.0420796205805387
3.477777777777778,-0.037555519398992585
3.4805555555555556,0.12941405313932605
3.4833333333333334,0.209403200102922
3.486111111111111,-0.0380458967201394
3.488888888888889,-0.01977801916700793
3.4916666666666667,0.011607112566607422
3.4944444444444445,0.08568616799502216
3.4972222222222222,-0.07078442033928109
3.5,-0.012280354562261397
3.5027777777777778,0.06963282085788064
3.5055555555555555,0.012004882496733177
3.5083333333333333,0.1004210328584864
3.511111111111111,0.0022706251534101544
3.513888888888889,-0.04932787081742082
3.5166666666666666,-0.15550679565956016
3.5194444444444444,0.06117489362095804
3.522222222222222,0.007122664097380507
3.525,0.055063586938677626
3.5277777777777777,0.052437166167390414
3.5305555555555554,-0.038087629137831584
3.533333333333333,0.03343101248275113
3.536111111111111,-0.036113148934150935
3.5388888888888888,0.1166894626113727
3.5416666666666665,0.2093801915666289
3.5444444444444443,0.09199881018951955
3.547222222222222,0.18228498103888824
3.55,0.1525501982228035
3.5527777777777776,0.17227062415158176
3.5555555555555554,0.2865198144761812
3.558333333333333,0.4855705655869484
3.561111111111111,0.6460074051017775
3.563888888888889,0.7215662869554711
3.566666666666667,0.9039957427517115
3.5694444444444446,1.0889623916454056
3.5722222222222224,1.143920716116472
3.575,1.0546742020511746
3.577777777777778,1.1246966145305854
3.5805555555555557,1.067778852443568
3.5833333333333335,0.8560731764667993
3.5861111111111112,0.7121611637832278
3.588888888888889,0.6650979328713831
3.591666666666667,0.44872989904172755
3.5944444444444446,0.25506197980466966
3.5972222222222223,0.2878062613857112
3.6,0.09074671594841055
3.602777777777778,0.05349945427814244
3.6055555555555556,0.07591457657246284
3.6083333333333334,0.027285317864705165
3.611111111111111,-0.18459770575783324
3.613888888888889,-0.2101791634918433
3.6166666666666667,-0.06791192518271166
3.6194444444444445,-0.3496845546325299
3.6222222222222222,-0.24632333264365652
3.625,-0.19943075562813833
3.6277777777777778,-0.19014462562557966
3.6305555555555555,-0.1909467489682406
3.6333333333333333,-0.2896047166478027
3.636111111111111,-0.12524774402849537
3.638888888888889,-0.17950952421010932
3.6416666666666666,0.001685044092651286
3.6444444444444444,-0.019571982326539533
3.647222222222222,-0.009277604505430994
3.65,-0.0037914131434161674
3.6527777777777777,-0.044694048263985195
3.6555555555555554,-0.0402794199880599
3.658333333333333,0.04312199339610448
3.661111111111111,-0.08175643325210956
3.6638888888888888,0.06994830279515157
3.6666666666666665,0.03158703946097746
3.6694444444444443,-0.003507648064570275
3.672222222222222,-0.008109149671112838
3.675,-0.03652373709539751
3.6777777777777776,-0.0654477002067919
3.6805555555555554,-0.10370509451828092
3.683333333333333,0.05939872482412883
3.686111111111111,0.048758851081751556
3.688888888888889,0.037481699904696714
3.691666666666667,0.028395425100719827
3.6944444444444446,0.07483276425930657
3.6972222222222224,0.06056121832683551
3.7,-0.012529183597177872
3.702777777777778,0.00038603837307734507
3.7055555555555557,0.02329049579012602
3.7083333333333335,0.005906761319669898
3.7111111111111112,-0.012102879492660153
3.713888888888889,0.05227826928087901
3.716666666666667,0.0233893292406082
3.7194444444444446,-0.06302786102364552
3.7222222222222223,0.10108520751795788
3.725,0.10969688227080082
3.727777777777778,0.08745748647016763
3.7305555555555556,0.06302657418657885
3.7333333333333334,-0.03312958549407917
3.736111111111111,0.1260011483135401
3.738888888888889,-0.019525926909702524
3.7416666666666667,0.09035302370839537
3.7444444444444445,0.08559634709448172
3.7472222222222222,0.12237358319124417
3.75,0.07753474265560491
3.7527777777777778,0.0004917562981240249
3.7555555555555555,0.05684551287593005
3.7583333333333333,0.05892395123370092
3.761111111111111,0.06873006211309544
3.763888888888889,0.015489291669916805
3.7666666666666666,-0.0011485320062950138
3.7694444444444444,-0.03346883321821702
3.772222222222222,0.031310500820919865
3.775,0.012672183212746935
3.7777777777777777,0.030533105529376048
3.7805555555555554,-0.010417803297056313
3.783333333333333,0.034005764024958834
3.786111111111111,0.0006738960455814069
3.7888888888888888,0.09242408376480964
3.7916666666666665,0.17347585058475384
3.7944444444444443,0.062130636559755426
3.797222222222222,0.06295919147514764
3.8,0.09714276366131658
3.8027777777777776,0.20168223829246026
3.8055555555555554,0.17819580102492388
3.808333333333333,0.16552773568507564
3.811111111111111,0.2901034606904992
3.813888888888889,0.18078359131285077
3.816666666666667,0.19192395714232377
3.8194444444444446,0.11817805097012894
3.8222222222222224,0.2745021206908135
3.825,0.3559596173050633
3.827777777777778,0.2769768635592966
3.8305555555555557,0.1440504231605032
3.8333333333333335,0.18595658188629405
3.8361111111111112,0.24505754727985182
3.838888888888889,0.2842407956853075
3.841666666666667,0.2704648400884348
3.8444444444444446,0.2919146916427483
3.8472222222222223,0.3235793711380397
3.85,0.32073242678248515
3.852777777777778,0.2739357950862114
3.8555555555555556,0.25392155920294757
3.8583333333333334,0.27704723592870795
3.861111111111111,0.34542764728500264
3.863888888888889,0.39474417205324225
3.8666666666666667,0.3256512807147961
3.8694444444444445,0.3245630235018131
3.8722222222222222,0.23223745349324695
3.875,0.11581007114981022
3.8777777777777778,0.20061531022748758
3.8805555555555555,0.21285020276576333
3.8833333333333333,0.2587948139227394
3.886111111111111,0.24332709597406077
3.888888888888889,0.18915915388644997
3.8916666666666666,0.1758442980892749
3.8944444444444444,0.18940763767244384
3.897222222222222,0.2575215366137924
3.9,0.1384256429248102
3.9027777777777777,0.30598483591698855
3.9055555555555554,0.17841898879531734
3.908333333333333,0.09944071302512106
3.911111111111111,0.08104035656461625
3.9138888888888888,0.10038758785681037
3.9166666666666665,0.05834773835665326
3.9194444444444443,0.09825075805288927
3.922222222222222,0.15275119450134073
3.925,0.0671668970180893
3.9277777777777776,0.12088949806982643
3.9305555555555554,0.08416662106814041
3.933333333333333,-0.011363885586895592
3.936111111111111,0.05349445987010896
3.938888888888889,0.020711132922745647
3.941666666666667,0.059490852289738536
3.9444444444444446,0.09264179201991332
3.9472222222222224,0.03861325371004532
3.95,0.1430787817430504
3.952777777777778,0.02898407429037496
3.9555555555555557,0.013904881733666656
3.9583333333333335,0.011985827022257084
3.9611111111111112,0.04162942122977634
3.963888888888889,0.026272291385907323
3.966666666666667,0.0941022406406481
3.9694444444444446,-0.024702763427894722
3.9722222222222223,0.01596026296176077
3.975,0.010411105433234834
3.977777777777778,-0.011948603066050403
3.9805555555555556,0.07879260442046848
3.9833333333333334,0.16382827687114696
3.986111111111111,0.10713862534016376
3.988888888888889,0.049460922196604154
3.9916666666666667,0.008655358424611154
3.9944444444444445,0.0061238143311872495
3.9972222222222222,-0.007400696099392189
4.0,-0.0010933373981343274
4.002777777777778,0.04082637149662005
4.0055555555555555,0.12871773281514665
4.008333333333334,0.10616180272976086
4.011111111111111,-0.07881356660080456
4.013888888888889,-0.06444838006894932
4.016666666666667,-0.04603663019617335
4.019444444444445,0.08834596236838935
4.022222222222222,-0.05607055581154395
4.025,0.04725542722532438
4.027777777777778,0.15006605357104102
4.030555555555556,0.034995780850925605
4.033333333333333,-0.05738145548999278
4.036111111111111,-0.12074369094555702
4.038888888888889,0.12529866879655893
4.041666666666667,0.05573127589361556
4.044444444444444,0.05459832120525361
4.0472222222222225,0.12286139723597511
4.05,0.06230716697011489
4.052777777777778,-0.04779679731924475
4.055555555555555,0.06138542549836525
4.058333333333334,0.13077858937973671
4.061111111111111,0.12438359629361928
4.063888888888889,0.01776414897149585
4.066666666666666,0.027166723499815887
4.069444444444445,0.08397572085560734
4.072222222222222,0.1333007844267583
4.075,0.016480816906057204
4.0777777777777775,-0.0017152561867407531
4.080555555555556,0.017785292646423763
4.083333333333333,0.046388522335028486
4.086111111111111,0.08063002051846774
4.088888888888889,0.0969965867104525
4.091666666666667,0.13118792874615434
4.094444444444444,0.09743001015664454
4.097222222222222,0.1118515664810859
4.1,0.06403037705577837
4.102777777777778,0.02591634411998238
4.105555555555555,0.002292450147691527
4.108333333333333,0.03544524118246728
4.111111111111111,-0.09199234945690071
4.113888888888889,-0.0029728098686466822
4.116666666666666,-0.034771959459033275
4.1194444444444445,0.011912028786928697
4.122222222222222,-0.0026951197560430157
4.125,0.08017011895398693
4.127777777777778,-0.029939397137748833
4.1305555555555555,0.013489449228046546
4.133333333333334,-0.03501531571648943
4.136111111111111,-0.030174687735485803
4.138888888888889,0.04208706264981632
4.141666666666667,0.12164754027179037
4.144444444444445,0.09134734148707026
4.147222222222222,0.06525041149757803
4.15,-0.08476464461757403
4.152777777777778,-0.023184941711454778
4.155555555555556,-0.021368414734155357
4.158333333333333,-0.03608365862043679
4.161111111111111,0.10092975842745312
4.163888888888889,0.047797626198010035
4.166666666666667,0.009727973238843224
4.169444444444444,0.16268794344708382
4.1722222222222225,-0.0031106769917087947
4.175,-0.08286392592577757
4.177777777777778,0.027699666698993153
4.180555555555555,0.032878767575773224
4.183333333333334,0.041481173995469786
4.186111111111111,0.11283266474640831
4.188888888888889,0.27142984517487667
4.191666666666666,0.13288013945997024
4.194444444444445,0.08068465969119626
4.197222222222222,0.27972422212456155
4.2,0.19565791757377538
4.2027777777777775,0.2711612863622353
4.205555555555556,0.23259923449231695
4.208333333333333,0.48864010236123295
4.211111111111111,0.3492325391733404
4.213888888888889,0.2848816792562308
4.216666666666667,0.5452449595043831
4.219444444444444,0.41292443045873073
4.222222222222222,0.737013691384568
4.225,0.7041082505614047
4.227777777777778,0.7391836437369846
4.230555555555555,0.7351184766714401
4.233333333333333,0.6409973775230972
4.236111111111111,0.827609585829705
4.238888888888889,0.8580718050506614
4.241666666666666,0.8211575600408351
4.2444444444444445,0.8314795376370578
4.247222222222222,0.7715831951566702
4.25,0.7532107872158263
4.252777777777778,0.7507205180602603
4.2555555555555555,0.6433429464551905
4.258333333333334,0.5666849609062992
4.261111111111111,0.6043065428034865
4.263888888888889,0.5483607701781634
4.266666666666667,0.24194651730638342
4.269444444444445,0.32403101572981513
4.272222222222222,0.22704848996814825
4.275,-0.057262400595965296
4.277777777777778,-0.08597813365934652
4.280555555555556,-0.03603856668208314
4.283333333333333,-0.10561372547586652
4.286111111111111,-0.20661655663534417
4.288888888888889,-0.2761144080553699
4.291666666666667,-0.26470219437620246
4.294444444444444,-0.30146252825555925
4.2972222222222225,-0.3566149741942922
4.3,-0.47192041099079435
4.302777777777778,-0.367540518407357
4.305555555555555,-0.3849870981959947
4.308333333333334,-0.4063948136932639
4.311111111111111,-0.48201321450017054
4.313888888888889,-0.4060200286407555
4.316666666666666,-0.4038221382282174
4.319444444444445,-0.27375147175432174
4.322222222222222,-0.1979470955155707
4.325,-0.2022328688068939
4.3277777777777775,-0.2175138152669328
4.330555555555556,-0.21026252504813348
4.333333333333333,-0.1842414214526033
4.336111111111111,-0.21819692909068655
4.338888888888889,-0.11433267468657587
4.341666666666667,-0.14014912472376115
4.344444444444444,-0.03156392984803209
4.347222222222222,-0.15019185847212924
4.35,-0.04659550755322685
4.352777777777778,-0.10060666383613473
4.355555555555555,-0.12764311286234364
4.358333333333333,-0.04576899347337108
4.361111111111111,-0.05383013678868283
4.363888888888889,-0.05693813456793371
4.366666666666666,0.06739596128626123
4.3694444444444445,-0.045016231413338895
4.372222222222222,-0.09581113107326666
4.375,0.003563660508716475
4.377777777777778,0.017765202933157087
4.3805555555555555,0.10793551821840444
4.383333333333334,0.012600670027743175
4.386111111111111,-0.09008971256335374
4.388888888888889,-0.03648176648580729
4.391666666666667,-0.013884155697877373
4.394444444444445,-0.1413135713955716
4.397222222222222,0.07018023722292749
4.4,-0.017576536212951535
4.402777777777778,0.006033247732556627
4.405555555555556,-0.03049971380752237
4.408333333333333,0.05966297938367571
4.411111111111111,-0.044015282544747666
4.413888888888889,-0.09329455329116676
4.416666666666667,-0.03383448375712038
4.419444444444444,-0.05216227555964273
4.4222222222222225,-0.06032355492742163
4.425,0.036251646887713505
4.427777777777778,0.07813040455155335
4.430555555555555,0.05368715652676774
4.433333333333334,-0.09851970753112281
4.436111111111111,-0.0805177749109198
4.438888888888889,-0.07977888078146253
4.441666666666666,-0.025769094340068334
4.444444444444445,0.0019356481268159274
4.447222222222222,0.11020996680559793
4.45,-0.13215749827438789
4.4527777777777775,-0.13514253256613756
4.455555555555556,-0.16239005339980617
4.458333333333333,-0.06233914220876459
4.461111111111111,-0.10614021947569079
4.463888888888889,0.055232210571725844
4.466666666666667,-0.06360574686063558
4.469444444444444,-0.09432772214133463
4.472222222222222,-0.0204484104480398
4.475,-0.11022757750544045
4.477777777777778,-0.17431459045803435
4.480555555555555,-0.10422517964556338
4.483333333333333,-0.1104706908107404
4.486111111111111,-0.05255726454922882
4.488888888888889,-0.13168260922139036
4.491666666666666,-0.0465505573165398
4.4944444444444445,-0.13106937197348348
4.497222222222222,-0.05095889904301702
4.5,-0.057869577169705914
4.502777777777778,-0.14261638273519436
4.5055555555555555,-0.023168066223248088
4.508333333333334,-0.14386878065171876
4.511111111111111,-0.13592126686319908
4.513888888888889,-0.24727598353751193
4.516666666666667,-0.3179581625052021
4.519444444444445,-0.16580800891063685
4.522222222222222,-0.010953798589412866
4.525,-0.16344280103783818
4.527777777777778,-0.099514504062556
4.530555555555556,-0.16653291677309004
4.533333333333333,-0.14437641376950933
4.536111111111111,-0.1228748827276064
4.538888888888889,-0.08274737581461132
4.541666666666667,-0.2075521492192075
4.544444444444444,-0.05449321190006449
4.5472222222222225,-0.044613178136937694
4.55,-0.05486636941003542
4.552777777777778,-0.059907738557035475
4.555555555555555,-0.07791137763958901
4.558333333333334,-0.15026149741940031
4.561111111111111,-0.05623630558913539
4.563888888888889,-0.18844665224472867
4.566666666666666,-0.042321728689121416
4.569444444444445,-0.1949514412740943
4.572222222222222,-0.1727825255704864
4.575,-0.05696619508349193
4.5777777777777775,-0.06302104994177926
4.580555555555556,0.07460729806027362
4.583333333333333,0.016466541410191327
4.586111111111111,-0.004759776478529064
4.588888888888889,-0.03314299275252296
4.591666666666667,-0.20375231310294883
4.594444444444444,-0.23145509655412344
4.597222222222222,-0.04863283779040148
4.6,-0.11771085687912947
4.602777777777778,-0.10499076967802458
4.605555555555555,-0.14004074255698645
4.608333333333333,0.07327016014521734
4.611111111111111,0.006116453224047275
4.613888888888889,-0.2598441604420221
4.616666666666666,-0.07867425733630791
4.6194444444444445,-0.04483405170587909
4.622222222222222,0.05155915535935049
4.625,-0.0012844859202813634
4.627777777777778,0.0028582166677166773
4.6305555555555555,0.03740224224515133
4.633333333333334,-0.07354304930424256
4.636111111111111,-0.02014651077568598
4.638888888888889,-0.11730451669619892
4.641666666666667,-0.008610676815924822
4.644444444444445,-0.055154412848405845
4.647222222222222,-0.02924158055190571
4.65,-0.07686737152685712
4.652777777777778,-0.18440394878968014
4.655555555555556,0.009150889148625524
4.658333333333333,-0.020956309121576373
4.661111111111111,-0.012380905584204942
4.663888888888889,0.004633910122247301
4.666666666666667,-0.0250435098569643
4.669444444444444,0.023414073097293202
4.6722222222222225,0.034407396412462946
4.675,-0.051623000046557774
4.677777777777778,-0.041222901213384976
4.680555555555555,-0.012846325701838836
4.683333333333334,-0.0029934853324073973
4.686111111111111,-0.004119369439628647
4.688888888888889,-0.03857824797910941
4.691666666666666,-0.1059902265766264
4.694444444444445,-0.06829791486846268
4.697222222222222,-0.03813821948912414
4.7,-0.14262079403359837
4.7027777777777775,-0.017569203592123692
4.705555555555556,0.012953099891860623
4.708333333333333,-0.04689752336149168
4.711111111111111,-0.1068948050082088
4.713888888888889,-0.04614111381376061
4.716666666666667,-0.02979867148471539
4.719444444444444,-0.02948076065792901
4.722222222222222,-0.07484632718042215
4.725,-0.024113309977704105
4.727777777777778,-0.09093708359719485
4.730555555555555,-0.1595502864874146
4.733333333333333,-0.0016325915412117586
4.736111111111111,-0.060750106871251645
4.738888888888889,-0.0017798817145026485
4.741666666666666,-0.052917139433155715
4.7444444444444445,0.03468815301943192
4.747222222222222,-0.0009140461413615006
4.75,-0.12127919453894011
4.752777777777778,-0.13796786992405125
4.7555555555555555,-0.24638266983764212
4.758333333333334,-0.13614537134825766
4.761111111111111,-0.07290471243271811
4.763888888888889,0.0690248005526426
4.766666666666667,0.02288327420248623
4.769444444444445,-0.12674682243654115
4.772222222222222,-0.06112493328391388
4.775,-0.14183185772071386
4.777777777777778,-0.04555491092268916
4.780555555555556,-0.0416654150925366
4.783333333333333,-0.07855449513354815
4.786111111111111,0.026399322270565344
4.788888888888889,-0.0807586581210239
4.791666666666667,-0.16635215845268453
4.794444444444444,-0.18111772686506672
4.7972222222222225,-0.11682907613093037
4.8,-0.10679052536387056
4.802777777777778,-0.024751621424006255
4.805555555555555,-0.06730735260924604
4.808333333333334,-0.07216198439474786
4.811111111111111,-0.1780368388505992
4.813888888888889,-0.12777070099790766
4.816666666666666,-0.08411827420135586
4.819444444444445,-0.014641221950665945
4.822222222222222,-0.14800200359338536
4.825,0.08311004723867851
4.8277777777777775,-0.05246276370828059
4.830555555555556,-0.0711678826338222
4.833333333333333,-0.13735528324458435
4.836111111111111,-0.035064736314572145
4.838888888888889,-0.15918640044078924
4.841666666666667,-0.1520659978601358
4.844444444444444,-0.050695265872718304
4.847222222222222,-0.0782669918696295
4.85,-0.0413750083679574
4.852777777777778,-0.05971956179836811
4.855555555555555,-0.12141110961258264
4.858333333333333,-0.14516034925893664
4.861111111111111,-0.07714336899818869
4.863888888888889,-0.006605670912825275
4.866666666666666,0.017119992682816457
4.8694444444444445,-0.08410513330377561
4.872222222222222,-0.15045550151765047
4.875,-0.1629206013163097
4.877777777777778,-0.22241636343522814
4.8805555555555555,-0.08258127564237559
4.883333333333334,-0.1174446903597551
4.886111111111111,-0.04717931949260405
4.888888888888889,-0.07787622455133937
4.891666666666667,-0.207693048506704
4.894444444444445,-0.13295231714031347
4.897222222222222,-0.10583609408619826
4.9,-0.13280243571472086
4.902777777777778,-0.13749036640270312
4.905555555555556,0.0399424046616989
4.908333333333333,-0.16037736960814436
4.911111111111111,-0.06291137802515462
4.913888888888889,-0.06860232796692786
4.916666666666667,-0.320810336480066
4.919444444444444,-0.21285818764162823
4.9222222222222225,-0.04390800432506857
4.925,-0.06310019271774633
4.927777777777778,-0.15251273371335775
4.930555555555555,-0.225711842595192
4.933333333333334,-0.1264403103642153
4.936111111111111,-0.1078944366802424
4.938888888888889,-0.2069032594669386
4.941666666666666,-0.15999192519699285
4.944444444444445,-0.14735359060108016
4.947222222222222,-0.05461988049769799
4.95,-0.15856056726737242
4.9527777777777775,-0.11285271526326551
4.955555555555556,-0.08254412331769882
4.958333333333333,0.004737161560103828
4.961111111111111,-0.029546402381256137
4.963888888888889,-0.07166281451205964
4.966666666666667,-0.0450716710189736
4.969444444444444,0.05513192097238845
4.972222222222222,-0.061178768913393744
4.975,-0.12625311523220265
4.977777777777778,-0.17586243072493615
4.980555555555555,-0.05532938697068653
4.983333333333333,-0.07565257647969584
4.986111111111111,-0.06293930819828353
4.988888888888889,-0.029037654843061263
4.991666666666666,-0.057031193538412676
4.9944444444444445,-0.0648819411747156
4.997222222222222,-0.08592697126477443
5.0,-0.08990026073440703
5.002777777777778,-0.03048311926725374
5.0055555555555555,-0.01192059117196766
5.008333333333334,-0.16337267308100845
5.011111111111111,-0.05512847846312346
5.013888888888889,-0.08217390578663661
5.016666666666667,-0.15946450579885382
5.019444444444445,0.06846036840355313
5.022222222222222,0.0013802883748787673
5.025,-0.023148557172570923
5.027777777777778,0.13042448014954994
5.030555555555556,-0.019021471513943185
5.033333333333333,0.05948238230687368
5.036111111111111,-0.07620794832526405
5.038888888888889,-0.1328347716632077
5.041666666666667,-0.12337263411915696
5.044444444444444,-0.07069599994800302
5.0472222222222225,-0.13729282441479762
5.05,-0.019121188922583285
5.052777777777778,-0.09591081343048066
5.055555555555555,-0.21668800172154856
5.058333333333334,0.010919166815918632
5.061111111111111,-0.11007885961896369
5.063888888888889,-0.01990678621508958
5.066666666666666,-0.06461169358350632
5.069444444444445,-0.1753121687910713
5.072222222222222,-0.20459428240781014
5.075,-0.14454512511333645
5.0777777777777775,-0.09085115541089943
5.080555555555556,-0.08242525683603036
5.083333333333333,-0.06269372737505902
5.086111111111111,-0.13828974812222855
5.088888888888889,-0.16149074003040845
5.091666666666667,-0.163209818702663
5.094444444444444,-0.14310383580920358
5.097222222222222,-0.1413933441793584
5.1,-0.03035752077956627
5.102777777777778,-0.02565405379578581
5.105555555555555,-0.07317030049786949
5.108333333333333,-0.12488877653671433
5.111111111111111,-0.22262415162283042
5.113888888888889,-0.07609139586113857
5.116666666666666,-0.1295357110840841
5.1194444444444445,-0.10235717406991754
5.122222222222222,-0.10426789684275212
5.125,-0.07374851278229426
5.127777777777778,-0.17047791485741765
5.1305555555555555,-0.220872244620689
5.133333333333334,-0.26876646149932804
5.136111111111111,-0.2976824322503976
5.138888888888889,-0.18432556485637808
5.141666666666667,-0.007484557123942262
5.144444444444445,-0.15052923144717556
5.147222222222222,-0.06405225743194949
5.15,-0.14448090772418629
5.152777777777778,-0.2839215573805069
5.155555555555556,-0.13577157627667172
5.158333333333333,-0.23507170147417475
5.161111111111111,-0.12170982720192913
5.163888888888889,-0.03711224180485657
5.166666666666667,-0.09631161388547022
5.169444444444444,-0.14638770080284164
5.1722222222222225,-0.07724621766564492
5.175,-0.046068576636741444
5.177777777777778,0.048167067535960645
5.180555555555555,0.2888744714988063
5.183333333333334,0.30487200619785393
5.186111111111111,0.5257134693025828
5.188888888888889,0.6016033623758106
5.191666666666666,0.6399654375802843
5.194444444444445,0.8004594360387703
5.197222222222222,0.9442824626576387
5.2,0.9712378836630684
5.2027777777777775,0.9627282418775034
5.205555555555556,0.8796684661874432
5.208333333333333,0.7860701726916509
5.211111111111111,0.5148806867727652
5.213888888888889,0.44229031995297985
5.216666666666667,0.2677430296010913
5.219444444444444,0.1805689594936572
5.222222222222222,0.10152843821891541
5.225,0.015751430537614488
5.227777777777778,-0.03736479741566224
5.230555555555555,-0.13201092737896536
5.233333333333333,-0.2888208019819178
5.236111111111111,-0.36669735685954324
5.238888888888889,-0.3513795305325299
5.241666666666666,-0.43263949255911144
5.2444444444444445,-0.43792883914730374
5.247222222222222,-0.39384721040684406
5.25,-0.399349781510402
5.252777777777778,-0.4654202368259227
5.2555555555555555,-0.4329179452099204
5.258333333333334,-0.3652717552895648
5.261111111111111,-0.3028708091249949
5.263888888888889,-0.3150779204021795
5.266666666666667,-0.24542901067004064
5.269444444444445,-0.22783936775969849
5.272222222222222,-0.20729038173531675
5.275,-0.2346849800694499
5.277777777777778,-0.2617038983450759
5.280555555555556,-0.20676408296233248
5.283333333333333,-0.010232599144792062
5.286111111111111,-0.11241362184601031
5.288888888888889,-0.10468475489269805
5.291666666666667,-0.13374274742321043
5.294444444444444,-0.1295050883468047
5.2972222222222225,-0.09367547644392374
5.3,-0.1205098485016851
5.302777777777778,-0.06691794854524814
5.305555555555555,-0.14515433648413156
5.308333333333334,-0.0831596193993831
5.311111111111111,-0.2340852218060042
5.313888888888889,-0.1380289077094447
5.316666666666666,-0.2389855479031877
5.319444444444445,-0.11047055500739864
5.322222222222222,-0.06919848783442942
5.325,-0.14374641395763904
5.3277777777777775,-0.0037594742753311317
5.330555555555556,0.005538311026828224
5.333333333333333,-0.11860377865445773
5.336111111111111,-0.15392289205092818
5.338888888888889,-0.10796319181871275
5.341666666666667,0.025942485436499574
5.344444444444444,-0.11658772429659024
5.347222222222222,-0.057590572159696665
5.35,-0.1358264233381848
5.352777777777778,-0.2431070778033138
5.355555555555555,-0.3029966798631782
5.358333333333333,-0.24620155768645602
5.361111111111111,-0.20198037433444996
5.363888888888889,-0.10822554216277609
5.366666666666666,-0.14518504967026266
5.3694444444444445,-0.2002083531242861
5.372222222222222,-0.18514263638909326
5.375,-0.02520023158657969
5.377777777777778,-0.13910892557090893
5.3805555555555555,-0.08441746453363948
5.383333333333334,-0.14102433929890693
5.386111111111111,-0.15465901201362875
5.388888888888889,-0.20442857727135053
5.391666666666667,-0.11041409927666519
5.394444444444445,-0.09644104879417277
5.397222222222222,-0.16965862390904538
5.4,-0.11080036289496117
5.402777777777778,-0.004760146060151613
5.405555555555556,-0.0161110801982475
5.408333333333333,-0.025120607414726867
5.411111111111111,-0.018945031423235073
5.413888888888889,-0.12874797733071747
5.416666666666667,-0.22946529686148404
5.419444444444444,0.09344811314018886
5.4222222222222225,-0.029411929391954132
5.425,0.0007981352729104045
5.427777777777778,0.04129903238526979
5.430555555555555,-0.09096001421167886
5.433333333333334,-0.07634180192024713
5.436111111111111,-0.04911715363187716
5.438888888888889,-0.001726620941763464
5.441666666666666,0.009650496428575291
5.444444444444445,0.08752994309614519
5.447222222222222,0.21928717970566428
5.45,-0.018456438248891857
5.4527777777777775,0.09798985433174098
5.455555555555556,0.041526459350545455
5.458333333333333,0.05081645238902376
5.461111111111111,0.011711623508828942
5.463888888888889,0.06553090431472972
5.466666666666667,0.09970979450090064
5.469444444444444,0.07632975677995334
5.472222222222222,0.12556668499591278
5.475,0.11970958780820908
5.477777777777778,0.024662699493134113
5.480555555555555,-0.010492122661022146
5.483333333333333,0.155150885491043
5.486111111111111,0.17620764907914996
5.488888888888889,0.1736795542106929
5.491666666666666,0.014609017052267192
5.4944444444444445,0.07652303193230169
5.497222222222222,0.0656307607057741
5.5,0.008281463568317507
5.502777777777778,0.10615715410320983
5.5055555555555555,0.1511482413800683
5.508333333333334,0.07438601643309545
5.511111111111111,0.0881264072063089
5.513888888888889,-0.10366067507859138
5.516666666666667,-0.019225635433260665
5.519444444444445,-0.0066650708269851006
5.522222222222222,0.009911550772335846
5.525,0.024131379839930238
5.527777777777778,-0.03237781290520402
5.530555555555556,-0.06991858925807692
5.533333333333333,-0.09322196571636666
5.536111111111111,-0.1869377946010992
5.538888888888889,-0.06948622024348672
5.541666666666667,-0.021352537517851856
5.544444444444444,-0.04694993976404556
5.5472222222222225,-0.086870827865755
5.55,-0.2132742198463068
5.552777777777778,-0.15476250070379374
5.555555555555555,-0.12756086746290937
5.558333333333334,-0.1942155188921521
5.561111111111111,-0.12124893781186373
5.563888888888889,-0.014379465880372214
5.566666666666666,-0.11694267774316129
5.569444444444445,-0.1609443482695115
5.572222222222222,-0.10061305750962661
5.575,-0.13794632121282793
5.5777777777777775,-0.07317517807251897
5.580555555555556,-0.05472978266429676
5.583333333333333,-0.20608796319912065
5.586111111111111,-0.24584032497547395
5.588888888888889,-0.11046149645346652
5.591666666666667,-0.09538008817406395
5.594444444444444,-0.05830697704700133
5.597222222222222,-0.2514011162235159
5.6,-0.1960277982681645
5.602777777777778,-0.13619945477312054
5.605555555555555,-0.1561847646505937
5.608333333333333,-0.1093255122203895
5.611111111111111,-0.21633695764339556
5.613888888888889,-0.1020417976620217
5.616666666666666,-0.15561172119369618
5.6194444444444445,-0.2502756851039493
5.622222222222222,-0.14900434433148427
5.625,-0.15819329716921116
5.627777777777778,-0.17164737513892975
5.6305555555555555,-0.16568519640310062
5.633333333333334,-0.1721191583176967
5.636111111111111,-0.2850456788704694
5.638888888888889,-0.17838688975383063
5.641666666666667,-0.09411817338509187
5.644444444444445,-0.20516827407472243
5.647222222222222,-0.10509439230383551
5.65,-0.10001713091274843
5.652777777777778,-0.18932595208243141
5.655555555555556,-0.27691852274600526
5.658333333333333,-0.1659922684071083
5.661111111111111,-0.11559373657831531
5.663888888888889,-0.043446327633982554
5.666666666666667,-0.20203638548788627
5.669444444444444,-0.1269396543560985
5.6722222222222225,-0.23807074454191723
5.675,-0.21161749738612262
5.677777777777778,-0.24167783643811638
5.680555555555555,-0.22283330974995333
5.683333333333334,-0.10977911572795461
5.686111111111111,-0.15248917460454392
5.688888888888889,-0.16641233307622502
5.691666666666666,-0.24927165219639474
5.694444444444445,-0.26527835160782254
5.697222222222222,-0.3004294704247551
5.7,-0.23114810056035934
5.7027777777777775,-0.11748349074535602
5.705555555555556,-0.20616643661867823
5.708333333333333,-0.17414391553174188
5.711111111111111,-0.16092583607936556
5.713888888888889,-0.22376792577939808
5.716666666666667,-0.1190612969379943
5.719444444444444,-0.13042865234177298
5.722222222222222,-0.15750528430866242
5.725,-0.09375464842266802
5.727777777777778,-0.22285998377898553
5.730555555555555,-0.16994718118096414
5.733333333333333,-0.2646772328647718
5.736111111111111,-0.30534555483513837
5.738888888888889,-0.18548215894417502
5.741666666666666,-0.1656569353987818
5.7444444444444445,-0.05869951140561906
5.747222222222222,-0.12200361026585721
5.75,-0.1513499223052781
5.752777777777778,-0.204411158620379
5.7555555555555555,-0.17869076520514246
5.758333333333334,-0.12016116988934994
5.761111111111111,-0.06390490015635221
5.763888888888889,-0.15592440642407565
5.766666666666667,-0.15926381604442963
5.769444444444445,-0.07492493097204005
5.772222222222222,-0.1856552260144472
5.775,-0.10709086399120558
5.777777777777778,-0.1882085165066634
5.780555555555556,-0.10345505133808547
5.783333333333333,-0.0649673885529036
5.786111111111111,-0.1356902614981614
5.788888888888889,-0.14655122002214774
5.791666666666667,-0.22187569219678707
5.794444444444444,-0.16349042866285973
5.7972222222222225,-0.24139762078644156
5.8,-0.14785372946681896
5.802777777777778,-0.15076366512998035
5.805555555555555,-0.03353035208095469
5.808333333333334,-0.1826102512348521
5.811111111111111,-0.15841094048498972
5.813888888888889,-0.3305458937563801
5.816666666666666,-0.1862794584902425
5.819444444444445,-0.24856556345314762
5.822222222222222,-0.07607437213157134
5.825,0.0029324466351227235
5.8277777777777775,-0.17775711415470247
5.830555555555556,-0.11336636106352449
5.833333333333333,-0.197749280769148
5.836111111111111,-0.22754325597194486
5.838888888888889,-0.08905667225394756
5.841666666666667,-0.08406353443905425
5.844444444444444,-0.09800318154006395
5.847222222222222,-0.08159982451178072
5.85,-0.020615696359442513
5.852777777777778,-0.06630396812288564
5.855555555555555,-0.09348226775210022
5.858333333333333,0.012492763487801761
5.861111111111111,-0.03304012791731883
5.863888888888889,-0.03739684762237537
5.866666666666666,0.011463523046166487
5.8694444444444445,-0.05230761170177292
5.872222222222222,-0.188314259277251
5.875,-0.06999595529636386
5.877777777777778,-0.05939524626209629
5.8805555555555555,-0.010778026570770885
5.883333333333334,-0.09546085761242992
5.886111111111111,-0.00431817592577264
5.888888888888889,-0.07800197214615638
5.891666666666667,-0.15735628193757265
5.894444444444445,-0.2036245291383338
5.897222222222222,-0.1424856136080047
5.9,-0.15406632126665465
5.902777777777778,-0.14253219822194285
5.905555555555556,-0.01743452854178827
5.908333333333333,-0.03960175647633603
5.911111111111111,-0.21949547582956772
5.913888888888889,-0.23078252992698667
5.916666666666667,-0.055450769030515434
5.919444444444444,-0.16178204171035862
5.9222222222222225,-0.17919509744457046
5.925,-0.14823024616201214
5.927777777777778,-0.10672861981654498
5.930555555555555,-0.21892986789676502
5.933333333333334,-0.16134477112903
5.936111111111111,-0.21115516555111954
5.938888888888889,-0.1273443576383112
5.941666666666666,-0.08978659051492335
5.944444444444445,-0.17239754454087827
5.947222222222222,-0.1298242618130338
5.95,-0.08833877754449636
5.9527777777777775,-0.11502990833971136
5.955555555555556,-0.12537896910764848
5.958333333333333,-0.19083907157628818
5.961111111111111,-0.20776754660772012
5.963888888888889,-0.26330758535817983
5.966666666666667,-0.08633428092566432
5.969444444444444,-0.23318875618089496
5.972222222222222,-0.14384179860609422
5.975,-0.18779993955620441
5.977777777777778,-0.2801671585794344
5.980555555555555,-0.15454460839082218
5.983333333333333,-0.16635691681141196
5.986111111111111,-0.17686463921532877
5.988888888888889,-0.1262661062843861
5.991666666666666,-0.019713655591276164
5.9944444444444445,-0.05951756613713921
5.997222222222222,-0.10073413915990666
6.0,-0.15805064724976473
6.002777777777778,-0.09551829302117124
6.0055555555555555,-0.033029963983554095
6.008333333333334,-0.04388394536191842
6.011111111111111,-0.18641204100979084
6.013888888888889,-0.20198476471883542
6.016666666666667,-0.09346627801218985
6.019444444444445,-0.02135797343158298
6.022222222222222,0.041257277381709354
6.025,0.16251659639948873
6.027777777777778,0.23286008981928347
6.030555555555556,0.28120611189196365
6.033333333333333,0.4762091027121902
6.036111111111111,0.6280277802356761
6.038888888888889,0.6925391459310365
6.041666666666667,0.8291609988365886
6.044444444444444,0.9950123889977146
6.0472222222222225,0.9810612125577297
6.05,0.7732007691160929
6.052777777777778,0.734628804740208
6.055555555555555,0.6253463544931385
6.058333333333334,0.4440222691880418
6.061111111111111,0.4117650498738626
6.063888888888889,0.172883630269257
6.066666666666666,0.11165994292901606
6.069444444444445,0.0032920915928166157
6.072222222222222,-0.046528934921275335
6.075,-0.09270056800622056
6.0777777777777775,-0.18395839108626746
6.080555555555556,-0.20522974676749736
6.083333333333333,-0.24621073747551864
6.086111111111111,-0.3483697360458164
6.088888888888889,-0.2632491634019607
6.091666666666667,-0.39498725956921815
6.094444444444444,-0.3795908727268278
6.097222222222222,-0.5077080261805536
6.1,-0.39971097944695694
6.102777777777778,-0.4272919809076868
6.105555555555555,-0.3375589065346178
6.108333333333333,-0.2707278539202759
6.111111111111111,-0.2728123760421192
6.113888888888889,-0.22260889086722216
6.116666666666666,-0.3186104433731153
6.1194444444444445,-0.12430089122236378
6.122222222222222,-0.21965405434638596
6.125,-0.14710586868412154
6.127777777777778,-0.16374757392450295
6.1305555555555555,-0.19379705595687807
6.133333333333334,-0.17737855144113052
6.136111111111111,-0.05538823197891493
6.138888888888889,-0.20503956493188852
6.141666666666667,-0.09814359227598399
6.144444444444445,-0.15404513810449827
6.147222222222222,-0.10336338632736407
6.15,-0.08420774732980411
6.152777777777778,-0.23738831415201897
6.155555555555556,-0.08870035293622114
6.158333333333333,-0.07967042226343395
6.161111111111111,-0.13284016835562545
6.163888888888889,-0.16980584583010921
6.166666666666667,-0.10197223958568438
6.169444444444444,-0.17125628108855767
6.1722222222222225,-0.13148903260607664
6.175,-0.1392115347891523
6.177777777777778,-0.14879305276121152
6.180555555555555,-0.2560404934051583
6.183333333333334,-0.05855160586334883
6.186111111111111,-0.07305557400815178
6.188888888888889,-0.03398826558244575
6.191666666666666,-0.20617021730006452
6.194444444444445,-0.1694776155399952
6.197222222222222,-0.16112731185897122
6.2,-0.16310181958780676
6.2027777777777775,-0.22232220591529311
6.205555555555556,-0.11231781190981141
6.208333333333333,-0.1426489992136712
6.211111111111111,-0.20778940475593222
6.213888888888889,-0.11144044138987927
6.216666666666667,-0.14378782484440214
6.219444444444444,-0.14914988499395698
6.222222222222222,-0.1323962821437749
6.225,-0.06529486324065926
6.227777777777778,-0.1975472082012037
6.230555555555555,-0.03905756484884909
6.233333333333333,-0.11465019465193003
6.236111111111111,-0.10603607996460651
6.238888888888889,-0.09785605026233155
6.241666666666666,-0.028586867939080163
6.2444444444444445,-0.09485207936967137
6.247222222222222,0.009065623697187587
6.25,-0.12860086765976406
6.252777777777778,-0.08873630156583552
6.2555555555555555,-0.08505958092109837
6.258333333333334,-0.07724818113070957
6.261111111111111,0.09796000377040526
6.263888888888889,-0.026235101282747676
6.266666666666667,-0.0074894563494743525
6.269444444444445,-0.009581376341210656
6.272222222222222,0.0011320400364508779
6.275,-0.08596875234953308
6.277777777777778,9.651326014510804e-05
6.280555555555556,0.09338816857792295
6.283333333333333,0.14749409886997644
6.286111111111111,0.06480455006736184
6.288888888888889,0.0774818253048086
6.291666666666667,0.014266209462310143
6.294444444444444,0.08334687238566951
6.2972222222222225,0.047470414617221804
6.3,0.13572586603748793
6.302777777777778,0.12690257458289256
6.305555555555555,0.12610061536925207
6.308333333333334,0.13884440154047273
6.311111111111111,0.1923490645418109
6.313888888888889,0.10563311636021754
6.316666666666666,0.09311132029348179
6.319444444444445,0.2042180795414212
6.322222222222222,0.054151787447244304
6.325,0.21387762934894375
6.3277777777777775,0.1401805026554016
6.330555555555556,0.2740508347097457
6.333333333333333,0.14392747828846528
6.336111111111111,0.13167800396207768
6.338888888888889,0.30841546011154913
6.341666666666667,0.11195789720136838
6.344444444444444,0.20509787821081044
6.347222222222222,0.21789970573202708
6.35,0.29352704112851513
6.352777777777778,0.1475257836522418
6.355555555555555,-0.006105931986758045
6.358333333333333,0.07917021715088066
6.361111111111111,0.09434314617617055
6.363888888888889,0.21989623714347933
6.366666666666666,0.14425336060068766
6.3694444444444445,0.08482618413504586
6.372222222222222,0.10226201713731425
6.375,-0.07238350934918247
6.377777777777778,0.04818354316401918
6.3805555555555555,0.0008667896607459404
6.383333333333334,0.01650895606156834
6.386111111111111,0.17972813868879364
6.388888888888889,-0.0393175866738995
6.391666666666667,-0.045383980878677024
6.394444444444445,-0.01651891920633896
6.397222222222222,0.012661082004820898
6.4,0.012697435859670508
6.402777777777778,-0.1197187250510272
6.405555555555556,-0.04288506228992245
6.408333333333333,0.03462331989927371
6.411111111111111,-0.01664825015904952
6.413888888888889,-0.12685811027013258
6.416666666666667,-0.15985033148600494
6.419444444444444,-0.06522331400257816
6.4222222222222225,-0.07911656712404197
6.425,-0.046116684315768104
6.427777777777778,-0.04904051091122291
6.430555555555555,-0.16248967757703764
6.433333333333334,-0.17648137407377312
6.436111111111111,-0.030992052455073305
6.438888888888889,-0.13896628219318619
6.441666666666666,-0.140881235528575
6.444444444444445,-0.08041763825763969
6.447222222222222,-0.10671070378749112
6.45,-0.08213968787503298
6.4527777777777775,-0.0004170842797967117
6.455555555555556,-0.16597477480049716
6.458333333333333,-0.1547528470602746
6.461111111111111,0.012001889112201514
6.463888888888889,-0.019126052390799356
6.466666666666667,-0.06956740783155334
6.469444444444444,-0.04068568570009073
6.472222222222222,-0.1315768840713368
6.475,-0.03306159465397292
6.477777777777778,-0.02976220155409045
6.480555555555555,0.025871908610734448
6.483333333333333,-0.126965608619301
6.486111111111111,-0.14923689549583907
6.488888888888889,-0.016488104325133583
6.491666666666666,-0.050851572507548126
6.4944444444444445,-0.09214326320251641
6.497222222222222,-0.039751571711925726
6.5,-0.039035947486880745
6.502777777777778,0.011953223963393232
6.5055555555555555,-0.001036723628212114
6.508333333333334,-0.07527183867983359
6.511111111111111,-0.12878193766160206
6.513888888888889,-0.04594929788876125
6.516666666666667,-0.09279777065546727
6.519444444444445,-0.09368890909188254
6.522222222222222,-0.013039292403003184
6.525,0.08044384414108842
6.527777777777778,-0.10596845944377284
6.530555555555556,-0.20586420081819112
6.533333333333333,-0.032270505298077345
6.536111111111111,-0.10651498383952816
6.538888888888889,-0.14238577461716784
6.541666666666667,-0.03778126863919978
6.544444444444444,-0.03339005788869395
6.5472222222222225,0.05567297156225913
6.55,-0.08769285269905454
6.552777777777778,-0.0949040944999127
6.555555555555555,-0.10899316021072523
6.558333333333334,-0.063634934421116
6.561111111111111,-0.00420259309626099
6.563888888888889,-0.04196197618177419
6.566666666666666,0.03724177572913977
6.569444444444445,-0.048703668458078636
6.572222222222222,-0.020819529858082948
6.575,-0.04080833985018974
6.5777777777777775,-0.11339341288642182
6.580555555555556,-0.03382953278085354
6.583333333333333,-0.010330172499833493
6.586111111111111,-0.0400377059425204
6.588888888888889,0.024844167637421033
6.591666666666667,-0.05942547070045331
6.594444444444444,-0.00531138801501263
6.597222222222222,-0.12615517356378125
6.6,0.027491343461251434
6.602777777777778,-0.04575639270597019
6.605555555555555,-0.012306775941496007
6.608333333333333,0.09465810341630398
6.611111111111111,-0.19068032668142876
6.613888888888889,-0.14475678796604952
6.616666666666666,-0.029048850233370428
6.6194444444444445,-0.07837576359358137
6.622222222222222,0.0012573436928017372
6.625,0.007989563517729566
6.627777777777778,-0.014519874276308702
6.6305555555555555,-0.08196234670537851
6.633333333333334,-0.15584960031690526
6.636111111111111,-0.048845800960362944
6.638888888888889,0.03114058792985544
6.641666666666667,-0.02071224384265057
6.644444444444445,0.034920779074119515
6.647222222222222,0.04629927686283093
6.65,-0.10129737087283483
6.652777777777778,-0.011717595872913582
6.655555555555556,-0.0034562639180575607
6.658333333333333,-0.052556187389326076
6.661111111111111,0.01389531310037307
6.663888888888889,0.13484911594788607
6.666666666666667,0.1407598252313509
6.669444444444444,0.16694178857938982
6.6722222222222225,0.018592796244525214
6.675,0.12638621847900083
6.677777777777778,0.11366563165553964
6.680555555555555,0.04922965331737203
6.683333333333334,0.16150177399659002
6.686111111111111,0.16828617124745876
6.688888888888889,0.10363195580004927
6.691666666666666,-0.037225631180960825
6.694444444444445,-0.1176082861235911
6.697222222222222,0.09864755249974672
6.7,-0.03378548334043931
6.7027777777777775,-0.027894307803406584
6.705555555555556,-0.002019724718424813
6.708333333333333,0.028214898738741997
6.711111111111111,0.05833332806524384
6.713888888888889,-0.08034524041024693
6.716666666666667,0.013853026045072589
6.719444444444444,-0.016637056853294384
6.722222222222222,0.05718108597736414
6.725,0.10796289770628581
6.727777777777778,-0.08324491971339927
6.730555555555555,-0.06330134395193698
6.733333333333333,-0.009644847780924427
6.736111111111111,0.05293924779163976
6.738888888888889,0.01835056084864206
6.741666666666666,0.009157087101170485
6.7444444444444445,-0.04813479744211366
6.747222222222222,-0.12589885545650395
6.75,0.03731098161171219
6.752777777777778,-0.04979763375699183
6.7555555555555555,-0.07136408791288104
6.758333333333334,0.006612042401381732
6.761111111111111,0.10874686923030645
6.763888888888889,0.06086108361759443
6.766666666666667,0.01455767111121311
6.769444444444445,0.07126163516008949
6.772222222222222,-0.009120534691554341
6.775,-0.07215498163591591
6.777777777777778,0.06532842538889641
6.780555555555556,-0.07737696272601381
6.783333333333333,-0.04117602197466236
6.786111111111111,-0.04232152937429406
6.788888888888889,-0.09952169380484685
6.791666666666667,-0.09111438926715426
6.794444444444444,-0.06573554427449423
6.7972222222222225,-0.10030539484011831
6.8,-0.1467783158708349
6.802777777777778,0.09137250399109477
6.805555555555555,0.0554390236999938
6.808333333333334,0.14695380140918507
6.811111111111111,-0.08815888278997526
6.813888888888889,-0.09657685118695898
6.816666666666666,-0.16933977397853037
6.819444444444445,0.012263316148306138
6.822222222222222,-0.0216145575690082
6.825,0.08245440530732709
6.8277777777777775,0.08870046491390185
6.830555555555556,0.07599719002680098
6.833333333333333,0.14349195177110968
6.836111111111111,0.2656820344452398
6.838888888888889,0.37417653187650074
6.841666666666667,0.45322227289687944
6.844444444444444,0.6002198332748881
6.847222222222222,0.8769085851170992
6.85,0.8777829923361045
6.852777777777778,0.896709205299379
6.855555555555555,0.9703300700134594
6.858333333333333,1.1015999759270239
6.861111111111111,1.1180319283540034
6.863888888888889,1.000276766049046
6.866666666666666,0.8706311215358357
6.8694444444444445,0.7331739146561317
6.872222222222222,0.628180880269647
6.875,0.3969149160235588
6.877777777777778,0.28677435024146847
6.8805555555555555,0.18253334510482105
6.883333333333334,0.2520721873127176
6.886111111111111,-0.013559779805520339
6.888888888888889,-0.022128961759585744
6.891666666666667,0.017683136198491226
6.894444444444445,-0.07605856531700182
6.897222222222222,-0.16093796175789354
6.9,-0.19716200219346502
6.902777777777778,-0.11735166477751847
6.905555555555556,-0.20433311858403488
6.908333333333333,-0.24337315006106408
6.911111111111111,-0.20046128880048614
6.913888888888889,-0.24291931428854627
6.916666666666667,-0.30068764341319854
6.919444444444444,-0.11558700501823735
6.9222222222222225,-0.026670973256490198
6.925,-0.038379340037589235
6.927777777777778,0.0633336685677933
6.930555555555555,-0.057116080879015985
6.933333333333334,-0.00636967828110022
6.936111111111111,0.09973322404567847
6.938888888888889,0.05187446647460009
6.941666666666666,0.10434300662893972
6.944444444444445,-0.12401237456143449
6.947222222222222,0.06429517384438539
6.95,0.05576443813088872
6.9527777777777775,0.10333044020348038
6.955555555555556,-0.010494109633896312
6.958333333333333,0.005858389304457052
6.961111111111111,0.03802533331639434
6.963888888888889,0.042341074801323125
6.966666666666667,0.09854742169883973
6.969444444444444,0.011283546942007734
6.972222222222222,0.14083930791884944
6.975,-0.028604616299273647
6.977777777777778,0.062276046312486455
6.980555555555555,0.0973752853115765
6.983333333333333,0.13105566920640804
6.986111111111111,0.11227501382198152
6.988888888888889,-0.021323748149730898
6.991666666666666,0.03000623950124902
6.9944444444444445,0.09928955546426319
6.997222222222222,-0.013138918322464575
7.0,0.00995929748546246
7.002777777777778,0.007151358697659288
7.0055555555555555,0.022511070231500514
7.008333333333334,0.1516840267426226
7.011111111111111,-0.02459813016416538
7.013888888888889,-0.18588235396395664
7.016666666666667,0.004070806231542689
7.019444444444445,0.0025525624952037126
7.022222222222222,0.07354790206446474
7.025,0.09773076954107598
7.027777777777778,0.12023581970457259
7.030555555555556,0.06561990088053182
7.033333333333333,0.04384800606033345
7.036111111111111,-0.004086878739491342
7.038888888888889,0.019072154219018648
7.041666666666667,0.0628431528754622
7.044444444444444,0.18201396527281058
7.0472222222222225,0.09743855300928717
7.05,0.08975185913490638
7.052777777777778,-0.002075460513447737
7.055555555555555,0.0346175180336498
7.058333333333334,-0.05298134951684651
7.061111111111111,0.13418010488894583
7.063888888888889,0.22985280685534337
7.066666666666666,0.05966797088348867
7.069444444444445,0.23676475384387044
7.072222222222222,0.16019278400537057
7.075,0.05181665806447234
7.0777777777777775,0.1635699614796206
7.080555555555556,0.17573086006288471
7.083333333333333,0.1874800972024038
7.086111111111111,0.16504649187264697
7.088888888888889,0.22677079638473227
7.091666666666667,0.26946620799133764
7.094444444444444,0.11655113295633168
7.097222222222222,0.16904023723607856
7.1,0.21871984988590865
7.102777777777778,0.2634481665620361
7.105555555555555,0.32787486100780566
7.108333333333333,0.15805973881173913
7.111111111111111,0.33089598591952873
7.113888888888889,0.3272578858138675
7.116666666666666,0.33477301168992174
7.1194444444444445,0.2804252075787802
7.122222222222222,0.2685998476510172
7.125,0.3608217060495243
7.127777777777778,0.4002608390328159
7.1305555555555555,0.38014322324315275
7.133333333333334,0.18343357485292427
7.136111111111111,0.30789934803466945
7.138888888888889,0.42779315186090655
7.141666666666667,0.4113135327114228
7.144444444444445,0.377618990622106
7.147222222222222,0.3169110787769948
7.15,0.32140042034675875
7.152777777777778,0.25556764541563237
7.155555555555556,0.29354900927434124
7.158333333333333,0.290971791318597
7.161111111111111,0.385258257352816
7.163888888888889,0.31355636253713
7.166666666666667,0.2990697737533478
7.169444444444444,0.3120196255760621
7.1722222222222225,0.21237318977512648
7.175,0.3037619912459325
7.177777777777778,0.3037916874252444
7.180555555555555,0.28657550723744357
7.183333333333334,0.23239064267539336
7.186111111111111,0.20266446589246112
7.188888888888889,0.17249929407501427
7.191666666666666,0.2616945115272169
7.194444444444445,0.1069327835239065
7.197222222222222,0.10117292498037206
7.2,0.15128292324739187
7.2027777777777775,0.21433658545010223
7.205555555555556,0.17134678623836602
7.208333333333333,0.22801841413411797
7.211111111111111,0.11785999409631165
7.213888888888889,0.1694790071012512
7.216666666666667,0.036257597196901664
7.219444444444444,0.0878186612063936
7.222222222222222,0.16956884159022756
7.225,0.117617877235709
7.227777777777778,0.1221185783676404
7.230555555555555,0.15691389722673849
7.233333333333333,0.02984871029668206
7.236111111111111,0.10265550638279036
7.238888888888889,0.14155403623709356
7.241666666666666,0.08036277082587003
7.2444444444444445,0.12817371605341601
7.247222222222222,0.07885180733755903
7.25,0.04291320173908547
7.252777777777778,0.01939545847884127
7.2555555555555555,0.1426248560970581
7.258333333333334,0.06303027612430187
7.261111111111111,0.10413204003271975
7.263888888888889,0.09564951219113897
7.266666666666667,0.08307568885892341
7.269444444444445,0.059431737216415786
7.272222222222222,0.1685114916133085
7.275,0.017220558562285673
7.277777777777778,0.07205383773904821
7.280555555555556,0.02100203765598746
7.283333333333333,0.07340747287307542
7.286111111111111,-0.04528500299500883
7.288888888888889,0.16577664719308144
7.291666666666667,-0.029221240126240902
7.294444444444444,0.0709569256966434
7.2972222222222225,0.09590046044559586
7.3,0.15716373126709873
7.302777777777778,0.1705461010127456
7.305555555555555,0.122028641013427
7.308333333333334,0.1601747248325051
7.311111111111111,-2.737400141029911e-05
7.313888888888889,0.0774356513307798
7.316666666666666,0.11370000349419446
7.319444444444445,0.11391932587476314
7.322222222222222,0.14402342364415596
7.325,0.019459571890321478
7.3277777777777775,0.09958466031802855
7.330555555555556,0.13919346863954835
7.333333333333333,0.1312934176400815
7.336111111111111,-0.0051542599823354435
7.338888888888889,0.11501219918861119
7.341666666666667,0.11123245750925705
7.344444444444444,0.17913681186891695
7.347222222222222,0.08372738677099299
7.35,0.1637007096862186
7.352777777777778,0.00621959250030138
7.355555555555555,0.10051807052311487
7.358333333333333,0.10732524781167106
7.361111111111111,0.049178806752748855
7.363888888888889,0.2080129144253144
7.366666666666666,0.09596324678157904
7.3694444444444445,0.2629496513096383
7.372222222222222,0.10831812684139537
7.375,0.18536753558565827
7.377777777777778,0.16436322015435034
7.3805555555555555,0.09081045373110877
7.383333333333334,0.22695265219190783
7.386111111111111,0.1854849522167536
7.388888888888889,0.07651496521525905
7.391666666666667,-0.038967474038835825
7.394444444444445,0.1448225705862558
7.397222222222222,0.07048340589657863
7.4,0.09017282180158341
7.402777777777778,0.16349630921462482
7.405555555555556,0.12065609642232844
7.408333333333333,0.1483950821112889
7.411111111111111,-0.009899100478846068
7.413888888888889,0.050553993352172866
7.416666666666667,0.13078109779879982
7.419444444444444,0.13444875581219787
7.4222222222222225,0.24027156445316955
7.425,0.06724731141462167
7.427777777777778,0.06360441162157526
7.430555555555555,0.008708630835888881
7.433333333333334,0.09642344246326015
7.436111111111111,0.11163679635355593
7.438888888888889,0.03370119604888627
7.441666666666666,0.16865234242701999
7.444444444444445,0.01926798500897768
7.447222222222222,0.10647982721291938
7.45,-0.025547698839721356
7.4527777777777775,0.04208641826683162
7.455555555555556,0.1149052977624998
7.458333333333333,0.02602964158743265
7.461111111111111,0.15931678098120855
7.463888888888889,0.1477691994756091
7.466666666666667,0.11098896909606076
7.469444444444444,0.056592786861990436
7.472222222222222,0.1244124208650503
7.475,-0.047735442937193825
7.477777777777778,0.06753274138976462
7.480555555555555,0.0901727653528244
7.483333333333333,0.17983076349244867
7.486111111111111,0.15178792361326585
7.488888888888889,0.11650393168343694
7.491666666666666,0.16633168088300612
7.4944444444444445,0.0012927520113147073
7.497222222222222,0.07936377002354095
7.5,0.18844376064805507
7.502777777777778,0.23280708374934428
7.5055555555555555,0.1803581577062876
7.508333333333334,0.24162275192327143
7.511111111111111,0.0915827907716308
7.513888888888889,0.0743550013136098
7.516666666666667,0.13519963886463582
7.519444444444445,0.2190280040288309
7.522222222222222,0.24695584398227222
7.525,0.2603264878524811
7.527777777777778,0.3025431476260513
7.530555555555556,0.17499216923686028
7.533333333333333,0.22722833060301473
7.536111111111111,0.22201427743204477
7.538888888888889,0.1874724592938926
7.541666666666667,0.19355830027475027
7.544444444444444,0.2892392339597518
7.5472222222222225,0.2775729206288096
7.55,0.14626272253026532
7.552777777777778,0.11164660865345047
7.555555555555555,0.2020420514775099
7.558333333333334,-0.07289710040606907
7.561111111111111,0.14137075931812101
7.563888888888889,0.20735569262095696
7.566666666666666,0.15937807356502526
7.569444444444445,0.11620695713030278
7.572222222222222,0.09376944887997879
7.575,0.05327082829341338
7.5777777777777775,0.18819299902520548
7.580555555555556,0.1129927445140099
7.583333333333333,0.11540709629005647
7.586111111111111,0.16708168346871669
7.588888888888889,0.1544357701286962
7.591666666666667,-0.02769809464928441
7.594444444444444,-0.0009008408206108709
7.597222222222222,0.15129221655002323
7.6,0.09500767703270674
7.602777777777778,0.19155306882080553
7.605555555555555,0.09561887123939128
7.608333333333333,0.10312451538685369
7.611111111111111,-0.0030033407745470447
7.613888888888889,0.07191552820889852
7.616666666666666,0.05517872869889434
7.6194444444444445,0.11575194723007953
7.622222222222222,0.21071554672203102
7.625,0.2355540481763823
7.627777777777778,0.07549130561471105
7.6305555555555555,-0.017863396043720198
7.633333333333334,-0.055247220078495224
7.636111111111111,-0.07752696827251762
7.638888888888889,0.03234799717355656
7.641666666666667,0.04441546989261971
7.644444444444445,0.12172011622912576
7.647222222222222,0.08053327799025906
7.65,0.15148547062330914
7.652777777777778,0.1543030791895997
7.655555555555556,0.11334868504242267
7.658333333333333,0.18435396013260005
7.661111111111111,0.11177301202643922
7.663888888888889,0.190493790637725
7.666666666666667,0.12286636050786126
7.669444444444444,0.11617288505862657
7.6722222222222225,0.08168738464544033
7.675,0.14350830667411205
7.677777777777778,0.17693866830832428
7.680555555555555,0.19303506092722528
7.683333333333334,0.31796309971948084
7.686111111111111,0.5381350646952456
7.688888888888889,0.4853448575903899
7.691666666666666,0.6719262060642931
7.694444444444445,0.7973112812406232
7.697222222222222,0.9433029743794711
7.7,1.1757983707602127
7.7027777777777775,1.178933699522127
7.705555555555556,1.2098837639251518
7.708333333333333,1.2637904191338682
7.711111111111111,1.102773742895598
7.713888888888889,1.0535830241105735
7.716666666666667,0.8335025646773695
7.719444444444444,0.7249633044974189
7.722222222222222,0.6167521606292546
7.725,0.35270922778293945
7.727777777777778,0.32484227138765515
7.730555555555555,0.31293697697032336
7.733333333333333,0.12095556507933766
7.736111111111111,0.1216483304750165
7.738888888888889,0.11019057347941447
7.741666666666666,-0.0776295194345734
7.7444444444444445,0.008031525364415537
7.747222222222222,0.04744175149374005
7.75,-0.10446600761044215
7.752777777777778,-0.23951638745888526
7.7555555555555555,-0.23110512237789257
7.758333333333334,-0.23161092377637332
7.761111111111111,-0.05914144174392784
7.763888888888889,-0.11850189908206403
7.766666666666667,-0.04711883032487537
7.769444444444445,-0.05673650500705382
7.772222222222222,0.05257014038591389
7.775,0.058766901550392436
7.777777777777778,-0.019333632028667933
7.780555555555556,0.13048375204726415
7.783333333333333,0.14852740233428147
7.786111111111111,0.13093647071525577
7.788888888888889,0.15603375897161698
7.791666666666667,-0.013772241230441143
7.794444444444444,0.03457154564373112
7.7972222222222225,0.14734335234332094
7.8,0.16478293148659373
7.802777777777778,0.08992924644975368
7.805555555555555,0.14799739478605614
7.808333333333334,0.14814943137806016
7.811111111111111,0.13763838470197004
7.813888888888889,0.08006152785750646
7.816666666666666,0.13529463636412822
7.819444444444445,0.12322564595622928
7.822222222222222,0.13816380575281953
7.825,0.1430369807604982
7.8277777777777775,0.1980047226406209
7.830555555555556,0.16910814093098192
7.833333333333333,0.17759833487310256
7.836111111111111,0.11072546027204114
7.838888888888889,0.11528548094635094
7.841666666666667,0.1396430464684355
7.844444444444444,0.2530861246884898
7.847222222222222,0.16953655357700223
7.85,0.1260193715072695
7.852777777777778,0.037714427232106766
7.855555555555555,0.10697237237727826
7.858333333333333,0.09564023878184051
7.861111111111111,0.08151046596731716
7.863888888888889,0.15310076152103644
7.866666666666666,0.1854317581142478
7.8694444444444445,0.17178163552041137
7.872222222222222,0.08602074636979722
7.875,0.06383589133605296
7.877777777777778,0.08985648525698467
7.8805555555555555,0.1343245699837538
7.883333333333334,0.17812039244437852
7.886111111111111,0.06433954261894059
7.888888888888889,0.10348390304453688
7.891666666666667,0.02532913827573746
7.894444444444445,0.14283951162683556
7.897222222222222,0.04912781622321247
7.9,0.11741708472976677
7.902777777777778,0.18120409742949123
7.905555555555556,0.22958072736488452
7.908333333333333,0.04445020920347478
7.911111111111111,-0.01934444943061403
7.913888888888889,-0.009477833075820591
7.916666666666667,0.10731399181768744
7.919444444444444,0.14877604332957972
7.9222222222222225,0.18395511018552943
7.925,0.03333175867153529
7.927777777777778,0.26097778389482246
7.930555555555555,0.1973857459733675
7.933333333333334,0.1932984301354668
7.936111111111111,0.14420081887317876
7.938888888888889,0.16298844812311497
7.941666666666666,0.264078884253466
7.944444444444445,0.33141959583595526
7.947222222222222,0.24995661619533877
7.95,0.22074076501796583
7.9527777777777775,0.22891932174125224
7.955555555555556,0.2580305491610206
7.958333333333333,0.2993800067605828
7.961111111111111,0.33958606963163007
7.963888888888889,0.3213003061596672
7.966666666666667,0.26445630130753
7.969444444444444,0.36393714690876866
7.972222222222222,0.40141796530505164
7.975,0.230394844357911
7.977777777777778,0.35640922490029264
7.980555555555555,0.3474217918201699
7.983333333333333,0.3943595472467589
7.986111111111111,0.37721695230590757
7.988888888888889,0.4466001883991285
7.991666666666666,0.33921629171111956
7.9944444444444445,0.37639141525785186
7.997222222222222,0.4290436747828599
8.0,0.3966789061212949
8.002777777777778,0.303779034194289
8.005555555555556,0.2891951635079498
8.008333333333333,0.38066962469581556
8.011111111111111,0.28255327415469683
8.01388888888889,0.23494739026899752
8.016666666666667,0.2011338747404015
8.019444444444444,0.37085165061268655
8.022222222222222,0.24625427694839416
8.025,0.20109922123470275
8.027777777777779,0.24434721071659263
8.030555555555555,0.19008866779925435
8.033333333333333,0.1640229025256701
8.036111111111111,0.12476070331234597
8.03888888888889,0.15498713132140918
8.041666666666666,0.23092452300634345
8.044444444444444,0.28280380953352724
8.047222222222222,0.23112305833343388
8.05,0.18193164051111735
8.052777777777777,0.23420589952238363
8.055555555555555,0.13576650050927944
8.058333333333334,0.06075215152488786
8.061111111111112,0.06265242098071389
8.063888888888888,0.22251886700487636
8.066666666666666,0.13946570568431094
8.069444444444445,0.14284304482532859
8.072222222222223,0.07623318083580136
8.075,0.11349207506462769
8.077777777777778,0.04289707662818056
8.080555555555556,0.18877691470179744
8.083333333333334,0.146470317463532
8.08611111111111,0.1308930425544739
8.088888888888889,0.14113177790831583
8.091666666666667,0.15205805675064368
8.094444444444445,-0.010972921233770985
8.097222222222221,0.0929532655284811
8.1,0.1088595895867608
8.102777777777778,0.21054234439885644
8.105555555555556,0.10540846807976896
8.108333333333333,0.07755735802266875
8.11111111111111,0.04070272712673358
8.113888888888889,0.16927495930716524
8.116666666666667,0.10213646156594545
8.119444444444444,0.1492014021232509
8.122222222222222,0.09766078424691724
8.125,0.06124201041208106
8.127777777777778,0.12657440400632433
8.130555555555556,0.14175796074311187
8.133333333333333,0.07697611098868862
8.136111111111111,0.0647720019489954
8.13888888888889,0.060691888020574555
8.141666666666667,0.14282271177088665
8.144444444444444,0.1776613822896161
8.147222222222222,0.1374988908695003
8.15,0.1005844847248801
8.152777777777779,0.0902671981132446
8.155555555555555,-0.00716257941647247
8.158333333333333,0.04214273227083198
8.161111111111111,0.07392522159046691
8.16388888888889,0.10345137661345914
8.166666666666666,0.16264254680438728
8.169444444444444,0.18459950523770868
8.172222222222222,0.12502650355410455
8.175,0.04338580001291195
8.177777777777777,0.07300878609894779
8.180555555555555,0.11942083485606633
8.183333333333334,0.05608870108131862
8.186111111111112,0.13265019442251252
8.188888888888888,0.09452772639728939
8.191666666666666,0.04541366174929799
8.194444444444445,9.916355966922696e-05
8.197222222222223,-0.0021526657379181066
8.2,0.0744334613730055
8.202777777777778,-0.0007214129609459524
8.205555555555556,0.05997112296585134
8.208333333333334,0.19595243198340412
8.21111111111111,0.13000017169325834
8.213888888888889,0.058792262214558945
8.216666666666667,0.03584283609191091
8.219444444444445,0.032856129011397894
8.222222222222221,0.042291818343614666
8.225,0.06452850098931576
8.227777777777778,0.14984314359759932
8.230555555555556,0.05552115650056491
8.233333333333333,0.08736412222247225
8.23611111111111,0.028908640202007244
8.238888888888889,0.027936089114096146
8.241666666666667,0.09794929827044525
8.244444444444444,0.24137997670686787
8.247222222222222,-0.04201394655817439
8.25,0.09244364548044437
8.252777777777778,0.11097882649018224
8.255555555555556,0.04334586721628731
8.258333333333333,0.06950574372552558
8.261111111111111,0.03321881386903464
8.26388888888889,0.1760919002415176
8.266666666666667,0.15067923612517903
8.269444444444444,0.05115837425637314
8.272222222222222,0.014614488224700371
8.275,0.05966901383874503
8.277777777777779,-0.030543554109595153
8.280555555555555,0.12646422773657068
8.283333333333333,0.15438838890087062
8.286111111111111,0.1583949349723993
8.28888888888889,0.043360056624810794
8.291666666666666,0.08292321207639168
8.294444444444444,0.03519619874289345
8.297222222222222,0.010077529501836251
8.3,0.03374726859090014
8.302777777777777,0.07241567056609907
8.305555555555555,0.08112412838061259
8.308333333333334,0.04550289439159852
8.311111111111112,0.10327453586856102
8.313888888888888,-0.08506711239441608
8.316666666666666,0.015047301075174851
8.319444444444445,0.05341895203258704
8.322222222222223,0.16089681849656634
8.325,-0.02212760553862317
8.327777777777778,0.1362459931779895
8.330555555555556,0.05538849489264546
8.333333333333334,0.05452306577474277
8.33611111111111,0.06211920926140231
8.338888888888889,0.13298781955423034
8.341666666666667,0.08134297664134418
8.344444444444445,0.1809293912254084
8.347222222222221,0.18389007473783664
8.35,0.051587294731438915
8.352777777777778,0.04320327648852417
8.355555555555556,0.16738628334558725
8.358333333333333,0.15684671030686217
8.36111111111111,0.13656024714057266
8.363888888888889,0.2881276457374237
8.366666666666667,0.22121223500934986
8.369444444444444,0.14484821322858207
8.372222222222222,0.1575573061670267
8.375,0.05852934753466675
8.377777777777778,0.1651627382243323
8.380555555555556,0.18777831505737774
8.383333333333333,0.18839913962869023
8.386111111111111,0.19953747652985482
8.38888888888889,0.21228511255042165
8.391666666666667,0.03453069834387042
8.394444444444444,0.020408925022254505
8.397222222222222,0.12866422506583652
8.4,0.0902729170178441
8.402777777777779,0.11118815500040126
8.405555555555555,0.09687525655556671
8.408333333333333,0.12234938506780607
8.411111111111111,-0.0033310557916828853
8.41388888888889,-0.0014629420515296018
8.416666666666666,-0.05711939333542692
8.419444444444444,0.056417501603191644
8.422222222222222,0.14682774131406678
8.425,0.08671020919979591
8.427777777777777,0.08113617507311194
8.430555555555555,0.12009181003904729
8.433333333333334,0.018766542497071867
8.436111111111112,0.05256206866812678
8.438888888888888,-0.02824073337449863
8.441666666666666,0.11599458028260146
8.444444444444445,0.09580861012787585
8.447222222222223,0.04203202537996134
8.45,0.05149397026418889
8.452777777777778,-0.015370684545045237
8.455555555555556,-0.07376056204438018
8.458333333333334,0.03692768638633853
8.46111111111111,0.07761930506929912
8.463888888888889,0.07628128161062897
8.466666666666667,0.11150043063058437
8.469444444444445,0.007526598157690544
8.472222222222221,-0.0053694186304834215
8.475,-0.095741413094209
8.477777777777778,-0.051482964271529985
8.480555555555556,-0.04040693848147809
8.483333333333333,0.06499290349809322
8.48611111111111,0.05985793084669226
8.488888888888889,0.0738040904477646
8.491666666666667,-0.07999575148452152
8.494444444444444,0.044833143423428326
8.497222222222222,-0.07365951075695537
8.5,0.048953597667034617
8.502777777777778,0.017265390660914724
8.505555555555556,0.004362857294085018
8.508333333333333,0.12843925209394583
8.511111111111111,0.02851723153099283
8.51388888888889,0.03420683767461827
8.516666666666667,-0.018231073327137248
8.519444444444444,0.08403887391015666
8.522222222222222,0.10970680820927814
8.525,0.0868137393460946
8.527777777777779,0.23169900117040537
8.530555555555555,0.09558898952153551
8.533333333333333,0.2653527688339451
8.536111111111111,0.38054734834559995
8.53888888888889,0.576911953796756
8.541666666666666,0.7718784140346088
8.544444444444444,0.854664163576317
8.547222222222222,0.9814444053567711
8.55,1.042390986625053
8.552777777777777,1.1488116081080506
8.555555555555555,1.0757615410323738
8.558333333333334,0.9306115006359688
8.561111111111112,0.9394805508101183
8.563888888888888,0.7390461680621151
8.566666666666666,0.685908926344204
8.569444444444445,0.43983258103242984
8.572222222222223,0.19972032167951698
8.575,0.18343949774908638
8.577777777777778,0.05634605393869152
8.580555555555556,0.08343294659987589
8.583333333333334,0.007245970428010399
8.58611111111111,0.07164340274433628
8.588888888888889,-0.16673304731028624
8.591666666666667,-0.2647524581675248
8.594444444444445,-0.24790741936930058
8.597222222222221,-0.2928298372026462
8.6,-0.2723542091112007
8.602777777777778,-0.26830712906489845
8.605555555555556,-0.2696640372634107
8.608333333333333,-0.2577744228609615
8.61111111111111,-0.17128529207369442
8.613888888888889,-0.10512188451640499
8.616666666666667,-0.2389834036554589
8.619444444444444,-0.08672542374220672
8.622222222222222,-0.0935729042652732
8.625,0.11900436035149609
8.627777777777778,-0.06447933866036713
8.630555555555556,0.05226161259162879
8.633333333333333,0.06255266703653367
8.636111111111111,-0.007248835906099892
8.63888888888889,-0.014158764156490845
8.641666666666667,0.00931641908615512
8.644444444444444,0.01730447808626539
8.647222222222222,-0.05041137591237285
8.65,0.01685481389882822
8.652777777777779,-0.04363710835231195
8.655555555555555,0.0576958741827791
8.658333333333333,0.0005073552264499015
8.661111111111111,0.005553910918117046
8.66388888888889,0.02787410078619573
8.666666666666666,0.09772903849072229
8.669444444444444,-0.01935273228545821
8.672222222222222,-0.0078079623718014645
8.675,-0.05905469272940696
8.677777777777777,0.0607019125673698
8.680555555555555,0.011684073667297627
8.683333333333334,0.03170859213952343
8.686111111111112,0.06636897661605576
8.688888888888888,-0.03236298970668357
8.691666666666666,-0.030766534925039897
8.694444444444445,-0.034398709482022304
8.697222222222223,0.00443875016033661
8.7,0.038678410031254745
8.702777777777778,0.0261341829417948
8.705555555555556,0.1293982333859181
8.708333333333334,-0.10762787172474
8.71111111111111,-0.025971802867593406
8.713888888888889,-0.11649176428725577
8.716666666666667,-0.07282760763937156
8.719444444444445,0.048190000515863175
8.722222222222221,-0.009701855077432521
8.725,0.06206586153628757
8.727777777777778,-0.047630016518120696
8.730555555555556,-0.00047595734101855145
8.733333333333333,0.06478084629825087
8.73611111111111,0.10346085485593826
8.738888888888889,0.024184226434147763
8.741666666666667,0.01293973218349578
8.744444444444444,-0.00969367004911259
8.747222222222222,-0.028655100310587184
8.75,0.0481423881800159
8.752777777777778,-0.026505003308260864
8.755555555555556,0.013223866024171861
8.758333333333333,-0.03625085158646861
8.761111111111111,0.023761300278449936
8.76388888888889,0.08727377716191125
8.766666666666667,-0.042124308243961225
8.769444444444444,0.059400063364379196
8.772222222222222,0.05403870660417956
8.775,0.04177449719544021
8.777777777777779,0.12427375130484339
8.780555555555555,0.08802099777813127
8.783333333333333,0.14311241516287607
8.786111111111111,0.17931500183769328
8.78888888888889,0.20437560480493472
8.791666666666666,0.12131763122119776
8.794444444444444,0.18516839832450263
8.797222222222222,0.20211758557650294
8.8,0.14612082101923818
8.802777777777777,0.22857110733264702
8.805555555555555,0.23946528516909102
8.808333333333334,0.23066079559212568
8.811111111111112,0.1302505645582338
8.813888888888888,0.12093791166333374
8.816666666666666,0.16184905054900559
8.819444444444445,0.0889786975312177
8.822222222222223,0.29909858503410275
8.825,0.29421054613500214
8.827777777777778,0.31307584465483806
8.830555555555556,0.21479338511351126
8.833333333333334,0.19080445541360552
8.83611111111111,0.2661754864168785
8.838888888888889,0.266395100258896
8.841666666666667,0.24312872416474898
8.844444444444445,0.23917331805318315
8.847222222222221,0.2652774454300163
8.85,0.15262785471450882
8.852777777777778,0.22415892020449957
8.855555555555556,0.17906957918279884
8.858333333333333,0.21263705079426484
8.86111111111111,0.1771136216280717
8.863888888888889,0.17970693176922037
8.866666666666667,0.19639304433930135
8.869444444444444,0.13203709974370242
8.872222222222222,0.09334952303728813
8.875,0.2170048365645618
8.877777777777778,0.04753136289092118
8.880555555555556,0.13767008996205335
8.883333333333333,0.17693151552649294
8.886111111111111,0.10824370207210461
8.88888888888889,0.030024898692443805
8.891666666666667,0.13756127802009438
8.894444444444444,-0.04219571138205786
8.897222222222222,-0.056947911762424745
8.9,0.08451891113575395
8.902777777777779,0.02139238584424468
8.905555555555555,0.0004344255366642777
8.908333333333333,0.07867744439416258
8.911111111111111,0.029445448441812155
8.91388888888889,-0.0446892752185761
8.916666666666666,-0.09411354785609163
8.919444444444444,-0.015211169501597026
8.922222222222222,0.024290309480830306
8.925,0.1764661190537186
8.927777777777777,0.07644499915832442
8.930555555555555,-0.10985312881826605
8.933333333333334,-0.0751552497915024
8.936111111111112,-0.07107898715815458
8.938888888888888,-0.016166797284706075
8.941666666666666,-0.017695715110625523
8.944444444444445,-0.06842023262447375
